1454741172.00
64.000000
-0.00
-0.00
-0.00
-0.00
-0.00
-0.00
-0.00
-0.00
-0.00
-0.00
0.00
0.01
0.01
-0.00
-0.03
-0.05
-0.05
0.00
0.13
0.36
0.66
1.01
1.37
1.72
2.06
2.40
2.79
3.24
3.80
4.42
5.06
5.66
6.20
6.68
7.15
7.68
8.31
9.14
10.09
11.04
11.88
12.56
13.14
13.76
14.65
15.96
17.91
20.32
22.90
25.38
27.58
29.57
31.68
34.32
37.81
42.54
48.15
54.10
59.83
64.97
69.58
74.14
79.34
85.71
93.76
103.00
112.62
121.73
129.77
136.75
143.30
150.75
157.77
166.64
177.95
191.79
206.97
220.57
228.25
225.36
208.53
176.87
132.76
80.05
23.07
-34.94
-92.44
-149.16
-205.23
-260.37
-313.74
-363.87
-409.83
-450.91
-486.50
-515.74
-537.23
-549.22
-549.96
-538.37
-514.21
-478.67
-433.88
-382.45
-327.02
-269.84
-212.63
-156.66
-102.95
-52.37
-5.90
35.58
71.43
101.35
125.50
144.38
158.69
169.15
176.37
180.75
182.57
182.07
179.51
175.23
169.65
163.18
156.15
148.81
141.30
133.69
126.02
118.33
110.69
103.16
95.80
88.68
81.83
75.25
68.95
62.95
57.25
51.86
46.78
42.03
37.59
33.45
29.61
26.07
22.81
19.83
17.11
14.67
12.48
10.54
8.83
7.35
6.07
4.97
4.05
3.27
2.62
2.09
1.65
1.30
1.01
0.79
0.61
0.47
0.37
0.28
0.22
0.18
0.14
0.12
0.11
0.11
0.11
0.12
0.14
0.16
0.19
0.23
0.27
0.31
0.36
0.40
0.45
0.50
0.55
0.61
0.66
0.72
0.78
0.84
0.91
0.98
1.06
1.15
1.25
1.37
1.49
1.63
1.79
1.97
2.17
2.39
2.64
2.91
3.21
3.54
3.91
4.31
4.75
5.23
5.74
6.30
6.89
7.53
8.21
8.93
9.70
10.51
11.37
12.27
13.21
14.20
15.26
16.37
17.55
18.77
20.02
21.28
22.48
23.55
24.37
24.84
24.81
24.19
22.87
20.78
17.93
14.36
10.15
5.46
0.51
-4.51
-9.36
-13.80
-17.67
-20.81
-23.11
-24.54
-25.10
-24.84
-23.85
-22.26
-20.16
-17.68
-14.91
-11.92
-8.78
-5.49
-2.14
1.23
4.55
7.79
10.92
13.91
16.80
19.61
22.44
25.20
27.84
30.30
32.57
34.62
36.52
38.37
40.32
42.62
45.14
47.79
50.55
53.34
56.14
58.97
61.98
65.40
69.59
74.30
79.38
84.65
89.92
95.02
99.92
104.83
110.08
116.17
122.71
129.28
135.25
139.80
142.11
141.36
136.74
127.03
115.70
103.73
91.34
78.23
63.79
47.49
29.22
9.44
-10.96
-30.81
-49.92
-68.27
-86.19
-104.30
-123.35
-144.19
-167.48
-193.25
-220.26
-246.24
-267.50
-280.10
-281.43
-271.40
-252.79
-230.08
-207.80
-188.80
-174.04
-162.54
-152.63
-143.02
-133.14
-122.97
-112.49
-101.50
-89.76
-77.61
-65.89
-55.72
-48.14
-43.55
-41.46
-40.72
-40.01
-38.29
-35.19
-30.93
-26.03
-21.07
-16.45
-12.38
-8.81
-5.52
-2.17
1.82
7.25
14.98
25.59
38.96
53.91
68.17
78.98
83.82
81.32
71.81
57.25
40.76
25.74
14.95
9.95
10.94
16.95
26.51
38.14
50.71
63.58
76.16
87.61
96.39
100.07
95.39
78.68
46.99
-0.40
-60.35
-125.49
-185.17
-228.22
-246.29
-236.80
-203.99
-157.79
-110.74
-74.27
-55.57
-56.16
-72.17
-96.11
-119.15
-133.30
-133.10
-116.48
-84.95
-42.97
3.15
46.78
82.40
106.75
119.23
121.45
116.31
106.97
95.95
84.91
74.42
64.14
53.24
41.23
28.57
17.07
9.37
7.62
12.12
20.96
30.81
38.62
42.95
43.88
41.73
35.76
23.78
3.73
-23.76
-53.84
-78.42
-89.34
-82.54
-60.24
-29.90
-1.17
18.37
26.28
25.68
22.59
22.56
27.89
37.29
48.18
57.73
64.31
68.15
70.89
74.30
79.28
85.10
89.77
92.40
92.24
89.05
83.60
77.79
73.99
74.92
82.95
99.88
127.83
165.99
209.50
250.57
281.36
296.37
295.12
281.49
252.40
212.34
170.54
135.26
108.88
91.37
78.06
66.74
56.40
45.70
34.33
21.23
4.63
-16.82
-43.13
-73.52
-106.46
-140.71
-175.00
-206.20
-230.97
-246.73
-252.11
-247.28
-234.40
-216.68
-197.79
-180.63
-165.82
-153.10
-142.26
-133.43
-126.92
-123.05
-121.45
-121.35
-121.62
-120.59
-116.98
-110.22
-100.39
-87.98
-73.92
-59.28
-45.27
-32.81
-22.15
-12.98
-4.65
3.50
11.77
19.89
27.10
32.50
35.69
37.27
38.90
42.83
50.88
63.54
79.34
95.20
107.27
112.18
107.92
94.10
72.03
44.84
17.57
-3.44
-12.29
-5.95
13.80
40.61
65.99
83.25
90.27
89.82
87.02
85.67
85.85
84.19
76.36
59.89
35.63
7.05
-21.64
-47.16
-67.70
-82.39
-90.59
-91.63
-85.32
-72.40
-54.85
-35.55
-17.30
-2.12
9.19
16.75
20.99
22.05
19.84
14.32
6.08
-3.52
-12.69
-19.96
-24.74
-27.36
-28.61
-29.04
-28.73
-27.58
-25.89
-24.86
-26.34
-32.03
-42.37
-55.92
-69.57
-79.57
-83.00
-79.02
-69.18
-56.77
-45.41
-37.65
-34.23
-34.22
-35.94
-37.74
-38.51
-37.43
-33.73
-26.62
-15.63
-1.12
15.46
31.76
45.34
54.35
58.07
56.86
51.81
44.17
35.02
25.14
15.05
5.22
-3.61
-10.43
-14.15
-14.03
-10.14
-3.59
3.76
10.05
14.23
16.53
18.43
21.90
28.44
38.40
50.83
64.07
76.50
87.16
96.06
104.07
112.23
121.35
131.52
142.12
152.24
161.17
168.75
175.35
181.48
187.37
192.63
196.27
197.09
194.09
186.80
175.36
160.42
142.97
124.18
105.38
87.92
72.86
60.47
49.98
39.58
26.97
9.99
-12.54
-40.35
-71.57
-103.15
-131.55
-153.77
-168.02
-174.13
-173.33
-167.64
-158.98
-148.56
-136.90
-124.11
-110.47
-96.81
-84.31
-74.22
-67.42
-64.36
-65.21
-70.16
-79.29
-92.24
-107.98
-124.69
-140.20
-152.82
-161.83
-167.72
-171.61
-174.68
-177.44
-179.65
-180.63
-179.70
-176.63
-171.77
-165.83
-159.47
-153.17
-147.17
-141.58
-136.44
-131.64
-126.75
-121.11
-114.18
-105.79
-96.42
-86.94
-78.13
-70.27
-62.86
-54.85
-45.18
-33.43
-19.96
-5.88
7.43
18.83
27.58
33.49
36.72
37.66
36.58
33.50
28.05
19.81
8.65
-5.01
-20.11
-35.43
-49.93
-63.17
-75.22
-86.30
-96.41
-105.10
-111.69
-115.64
-116.84
-115.63
-112.50
-107.79
-101.49
-93.51
-83.81
-72.60
-60.07
-46.19
-30.50
-12.32
8.67
32.23
57.28
82.25
105.48
125.64
141.99
154.30
162.79
167.96
170.53
171.30
171.04
170.32
169.56
168.88
168.32
167.79
167.13
166.12
164.50
162.14
159.01
155.22
150.99
146.49
141.83
137.06
132.17
127.06
121.64
115.80
109.38
102.29
94.54
86.21
77.46
68.49
59.47
50.49
41.58
32.64
23.62
14.61
5.97
-1.63
-7.25
-10.07
-9.56
-5.74
0.78
9.00
17.78
26.22
33.75
40.32
46.19
51.84
57.65
63.85
70.33
76.72
82.43
86.77
89.29
89.99
89.47
88.78
89.00
90.68
93.38
95.61
95.22
90.27
79.89
64.86
47.27
29.69
13.88
-0.00
-13.39
-28.36
-46.38
-67.39
-89.63
-110.35
-126.62
-135.99
-136.62
-127.41
-108.48
-81.95
-52.29
-25.52
-7.05
0.82
0.23
-3.21
-3.21
3.75
16.68
30.96
41.13
44.01
40.20
33.19
26.83
22.97
20.63
17.14
10.20
-0.35
-12.26
-21.93
-26.34
-24.60
-18.41
-11.18
-6.39
-5.99
-9.71
-15.42
-20.26
-21.95
-19.64
-13.85
-6.02
2.17
9.44
15.05
18.82
21.04
22.33
23.50
25.24
27.78
30.56
32.36
31.60
26.96
17.75
4.19
-12.58
-30.52
-46.87
-58.43
-62.15
-56.08
-40.14
-16.46
11.12
38.08
60.64
76.52
85.07
86.66
82.07
72.18
58.03
41.15
23.44
6.85
-7.19
-18.24
-26.73
-33.60
-39.60
-44.64
-47.58
-46.45
-39.38
-25.66
-6.68
14.13
32.42
44.65
49.62
48.90
45.82
43.77
44.55
47.97
52.61
57.07
61.01
65.20
70.67
77.57
84.64
89.50
89.53
83.02
69.77
51.23
29.88
8.34
-11.49
-28.86
-44.07
-58.05
-71.66
-85.31
-98.64
-110.55
-119.45
-123.61
-121.76
-113.46
-99.36
-81.03
-60.68
-40.62
-22.73
-8.27
2.22
8.66
11.04
9.12
2.33
-9.77
-26.75
-46.79
-66.65
-82.60
-91.93
-94.27
-91.79
-88.24
-87.10
-89.94
-95.93
-102.60
-107.40
-109.12
-108.20
-106.12
-104.29
-103.09
-101.71
-98.75
-93.02
-84.09
-72.39
-58.89
-44.49
-29.78
-14.94
-0.08
14.51
28.25
40.42
50.45
58.09
63.30
66.07
66.42
64.62
61.49
58.50
57.33
59.07
63.58
69.50
75.04
79.03
81.60
83.91
87.12
91.30
95.14
96.54
93.85
86.80
76.51
64.81
53.26
42.63
32.92
23.82
15.06
6.48
-2.08
-10.98
-20.62
-31.15
-42.16
-52.65
-61.19
-66.50
-67.83
-65.21
-59.40
-51.64
-43.23
-35.28
-28.46
-22.99
-18.71
-15.35
-12.67
-10.66
-9.43
-9.09
-9.58
-10.62
-11.76
-12.52
-12.51
-11.50
-9.47
-6.54
-3.03
0.62
3.94
6.61
8.56
9.94
11.00
11.81
12.16
11.69
10.09
7.32
3.71
-0.20
-3.92
-7.07
-9.51
-11.24
-12.45
-13.51
-15.04
-17.74
-22.10
-28.04
-34.68
-40.49
-43.80
-43.43
-39.10
-31.56
-22.19
-12.48
-3.50
4.33
11.19
17.48
23.52
29.27
34.44
38.68
41.78
43.81
45.01
45.63
45.79
45.42
44.34
42.43
39.73
36.44
32.85
29.24
25.72
22.29
18.88
15.48
12.15
8.98
5.90
2.69
-1.01
-5.52
-10.90
-16.84
-22.71
-27.88
-32.02
-35.26
-38.13
-41.27
-45.18
-49.99
-55.39
-60.72
-65.11
-67.62
-67.49
-64.31
-58.17
-49.68
-39.79
-29.53
-19.70
-10.75
-2.82
4.04
9.81
14.33
17.39
18.84
18.78
17.55
15.75
14.06
13.02
12.84
13.41
14.30
15.00
15.14
14.61
13.57
12.27
10.88
9.39
7.58
5.18
1.99
-1.89
-6.14
-10.26
-13.79
-16.45
-18.32
-19.77
-21.31
-23.44
-26.45
-30.42
-35.12
-40.13
-44.71
-47.99
-49.08
-47.30
-42.51
-35.15
-26.20
-16.77
-7.82
0.09
6.75
12.14
16.21
18.75
19.58
18.80
16.94
14.83
13.33
12.92
13.54
14.66
15.62
15.96
15.61
14.85
14.08
13.61
13.45
13.38
13.06
12.21
10.69
8.58
6.17
3.84
1.93
0.60
-0.28
-1.04
-2.08
-3.74
-6.22
-9.60
-13.86
-18.90
-24.38
-29.63
-33.71
-35.57
-34.43
-30.10
-23.08
-14.44
-5.45
2.80
9.67
15.04
19.19
22.46
25.09
27.12
28.48
29.11
29.13
28.77
28.26
27.78
27.42
27.34
27.78
28.98
30.99
33.52
36.01
37.96
39.20
39.96
40.58
41.19
41.46
40.83
38.87
35.61
31.56
27.30
23.12
18.83
14.01
8.39
2.10
-4.41
-10.68
-16.51
-21.98
-27.18
-31.84
-35.25
-36.56
-35.13
-30.88
-24.36
-16.52
-8.38
-0.71
6.02
11.69
16.43
20.61
24.62
28.89
33.74
39.35
45.84
53.21
61.39
70.00
78.20
84.75
88.44
88.70
86.16
82.71
80.79
82.43
88.23
97.02
106.15
112.62
114.11
109.77
100.14
86.59
70.49
52.73
33.76
13.94
-6.04
-25.21
-42.66
-58.16
-72.38
-86.63
-102.04
-118.65
-135.06
-148.80
-157.39
-159.43
-155.18
-146.48
-135.84
-125.45
-116.49
-108.91
-101.79
-94.05
-84.93
-74.32
-62.69
-50.83
-39.52
-29.31
-20.35
-12.45
-5.17
1.93
9.05
15.97
22.17
27.00
29.99
31.06
30.43
28.59
26.04
23.20
20.34
17.63
15.08
12.58
10.00
7.25
4.38
1.64
-0.73
-2.59
-4.02
-5.30
-6.92
-9.32
-12.86
-17.65
-23.43
-29.48
-34.72
-37.95
-38.28
-35.46
-29.95
-22.82
-15.30
-8.32
-2.31
2.78
7.24
11.34
15.12
18.45
21.08
22.86
23.85
24.28
24.47
24.68
24.97
25.27
25.48
25.58
25.64
25.74
25.81
25.57
24.69
22.91
20.26
17.02
13.57
10.27
7.29
4.68
2.41
0.42
-1.41
-3.23
-5.26
-7.67
-10.49
-13.66
-17.05
-20.60
-24.37
-28.39
-32.47
-36.06
-38.24
-37.95
-34.46
-27.66
-18.28
-7.75
2.28
10.49
16.26
19.69
21.37
21.86
21.45
20.15
18.03
15.46
13.26
12.28
13.05
15.50
18.97
22.73
26.31
29.71
33.18
36.92
40.81
44.35
46.72
46.98
44.24
37.98
28.28
16.00
2.69
-9.76
-19.65
-25.93
-28.40
-27.61
-24.48
-20.09
-15.45
-11.37
-8.38
-6.44
-4.91
-2.55
1.97
9.60
20.44
33.56
47.28
59.74
69.60
76.62
81.59
85.87
90.54
95.83
101.05
105.07
106.98
106.52
104.03
99.91
94.23
86.87
78.18
69.74
64.25
64.45
71.50
83.81
97.22
106.68
108.48
101.83
88.94
73.57
58.97
46.59
35.96
25.75
15.10
4.23
-5.86
-14.33
-21.33
-28.18
-36.66
-48.21
-62.96
-79.53
-95.56
-108.58
-116.88
-120.05
-118.94
-115.06
-109.95
-104.56
-99.03
-93.07
-86.38
-79.09
-71.84
-65.43
-60.48
-57.03
-54.50
-51.92
-48.44
-43.56
-37.41
-30.60
-23.99
-18.36
-14.14
-11.40
-9.94
-9.50
-9.80
-10.72
-12.14
-13.99
-16.27
-19.02
-22.28
-25.98
-29.92
-33.74
-37.13
-39.96
-42.32
-44.47
-46.63
-48.90
-51.18
-53.26
-54.97
-56.10
-56.39
-55.41
-52.76
-48.17
-41.85
-34.42
-26.80
-19.78
-13.82
-8.99
-5.12
-2.04
0.30
1.86
2.61
2.66
2.30
1.90
1.81
2.20
3.16
4.62
6.47
8.56
10.72
12.72
14.35
15.42
15.84
15.61
14.74
13.22
11.06
8.37
5.41
2.64
0.53
-0.64
-0.85
-0.48
-0.09
-0.22
-1.23
-3.26
-6.24
-9.95
-14.08
-18.07
-21.24
-22.74
-21.85
-18.26
-12.35
-5.07
2.18
8.06
11.69
12.88
12.16
10.48
8.70
7.35
6.48
5.83
5.14
4.41
3.88
3.88
4.61
5.98
7.75
9.67
11.55
13.25
14.44
14.55
12.85
8.73
1.98
-7.07
-17.67
-28.99
-40.21
-50.73
-60.11
-67.92
-73.82
-77.59
-79.33
-79.38
-78.38
-77.08
-76.23
-76.38
-77.60
-79.31
-80.39
-79.38
-75.02
-66.79
-55.11
-41.19
-26.63
-12.77
-0.48
9.96
18.59
25.51
30.67
33.99
35.46
35.34
34.18
32.67
31.49
30.96
31.09
31.55
31.83
31.50
30.27
28.15
25.29
22.01
18.61
15.32
12.30
9.62
7.22
4.99
2.76
0.40
-2.13
-4.70
-7.08
-9.03
-10.46
-11.49
-12.53
-14.09
-16.77
-20.88
-26.45
-32.99
-39.64
-45.22
-48.43
-48.27
-44.26
-36.77
-26.86
-16.11
-6.08
2.13
8.11
12.06
14.63
16.50
18.25
20.21
22.48
24.92
27.34
29.43
30.97
31.87
32.24
32.38
32.64
33.26
34.27
35.44
36.42
36.89
36.69
35.86
34.62
33.27
32.03
30.96
29.92
28.59
26.64
23.91
20.41
16.45
12.37
8.35
4.28
-0.34
-6.25
-14.06
-23.96
-35.51
-47.48
-58.13
-65.60
-68.37
-65.80
-58.30
-47.18
-34.31
-21.53
-10.24
-1.12
5.77
10.82
14.50
17.30
19.56
21.51
23.33
25.23
27.34
29.65
32.00
34.03
35.30
35.42
34.27
32.04
29.14
26.02
22.97
20.11
17.40
14.78
12.20
9.63
7.00
4.15
0.87
-2.94
-7.16
-11.48
-15.56
-19.19
-22.45
-25.71
-29.50
-34.31
-40.50
-48.04
-56.50
-64.94
-72.01
-76.18
-76.27
-71.81
-63.38
-52.41
-40.77
-30.12
-21.34
-14.51
-9.10
-4.43
-0.09
3.98
7.63
10.75
13.41
15.81
18.06
20.08
21.59
22.29
22.03
20.87
18.92
16.16
12.37
7.30
0.87
-6.66
-14.68
-22.50
-29.65
-36.06
-41.98
-47.77
-53.68
-59.70
-65.64
-71.27
-76.47
-81.26
-85.81
-90.45
-95.51
-101.27
-107.86
-115.08
-122.37
-128.69
-132.74
-133.20
-129.08
-120.13
-107.00
-91.19
-74.52
-58.64
-44.51
-32.31
-21.63
-11.94
-2.93
5.44
13.07
20.01
26.63
33.50
41.06
49.39
57.98
66.07
72.80
77.67
80.67
82.18
82.73
82.63
81.92
80.39
77.81
74.19
69.80
65.08
60.41
55.88
51.30
46.31
40.51
33.66
25.67
16.57
6.51
-4.17
-14.77
-24.15
-30.88
-33.61
-31.53
-24.72
-14.20
-1.67
11.04
22.51
32.02
39.47
45.09
49.09
51.51
52.34
51.78
50.30
48.69
47.68
47.60
48.27
49.13
49.57
49.22
48.13
46.66
45.18
43.89
42.67
41.11
38.70
35.05
30.08
24.09
17.68
11.54
6.10
1.38
-3.03
-7.86
-13.86
-21.46
-30.53
-40.21
-49.02
-55.26
-57.41
-54.62
-47.07
-35.89
-22.75
-9.36
3.02
13.78
22.84
30.36
36.45
41.06
44.11
45.69
46.11
45.96
45.82
46.11
46.88
47.83
48.48
48.49
47.70
46.20
44.20
41.83
39.02
35.60
31.39
26.34
20.64
14.64
8.77
3.36
-1.49
-5.95
-10.41
-15.39
-21.44
-28.96
-37.97
-47.97
-57.88
-66.09
-70.86
-70.74
-65.14
-54.55
-40.48
-24.98
-10.03
3.09
13.95
22.83
30.24
36.54
41.72
45.61
48.07
49.34
49.96
50.62
51.75
53.29
54.76
55.53
55.20
53.79
51.71
49.49
47.51
45.74
43.84
41.29
37.71
33.01
27.40
21.37
15.40
9.90
5.00
0.64
-3.40
-7.46
-11.90
-17.09
-23.26
-30.37
-37.87
-44.59
-48.86
-48.91
-43.51
-32.55
-17.19
0.45
18.02
33.80
47.06
58.12
67.79
76.84
85.54
93.69
100.89
106.88
111.82
116.17
120.46
124.93
129.41
133.43
136.43
138.07
138.40
137.86
137.05
136.39
135.96
135.52
134.63
132.88
129.94
125.49
119.12
110.23
98.15
82.41
63.05
40.71
16.49
-8.43
-33.02
-56.59
-78.68
-98.71
-115.82
-128.83
-136.52
-138.09
-133.49
-123.66
-110.29
-95.42
-80.79
-67.43
-55.66
-45.27
-35.96
-27.66
-20.56
-14.93
-10.87
-8.11
-6.13
-4.37
-2.51
-0.52
1.38
2.90
3.91
4.45
4.72
4.93
5.21
5.50
5.55
4.97
3.36
0.41
-3.90
-9.29
-15.20
-20.98
-26.04
-30.14
-33.39
-36.22
-39.22
-42.98
-47.95
-54.33
-62.04
-70.46
-78.52
-84.70
-87.43
-85.57
-78.93
-68.34
-55.41
-41.90
-29.04
-17.20
-6.05
4.92
15.89
26.32
35.13
41.20
43.92
43.54
41.18
38.38
36.60
36.64
38.52
41.51
44.69
47.29
49.06
50.21
51.01
51.48
51.10
49.03
44.38
36.78
26.61
14.96
3.32
-7.05
-15.47
-22.07
-27.51
-32.71
-38.40
-44.93
-52.15
-59.46
-65.96
-70.58
-72.34
-70.61
-65.33
-57.07
-46.95
-36.29
-26.26
-17.60
-10.50
-4.80
-0.25
3.28
5.77
7.14
7.45
6.96
6.14
5.54
5.52
6.10
6.97
7.58
7.47
6.51
5.04
3.64
2.85
2.86
3.38
3.71
3.08
0.99
-2.64
-7.45
-12.83
-18.15
-22.92
-26.93
-30.22
-33.09
-35.87
-38.90
-42.44
-46.55
-51.07
-55.59
-59.30
-61.20
-60.29
-55.92
-48.13
-37.71
-26.01
-14.53
-4.45
3.62
9.68
14.08
17.31
19.77
21.75
23.47
25.05
26.49
27.70
28.50
28.74
28.44
27.69
26.72
25.71
24.70
23.62
22.35
20.80
18.92
16.71
14.14
11.12
7.63
3.69
-0.40
-4.27
-7.47
-9.82
-11.42
-12.71
-14.24
-16.42
-19.47
-23.28
-27.72
-32.72
-38.19
-43.84
-48.94
-52.32
-52.63
-49.04
-41.59
-31.48
-20.55
-10.68
-3.02
2.28
5.87
8.75
11.66
14.78
17.79
20.15
21.51
21.80
21.30
20.42
19.46
18.49
17.42
16.09
14.42
12.49
10.49
8.65
7.08
5.74
4.45
3.03
1.35
-0.54
-2.53
-4.50
-6.49
-8.65
-11.09
-13.81
-16.51
-18.79
-20.35
-21.26
-22.03
-23.46
-26.34
-31.00
-37.15
-43.80
-49.50
-52.68
-52.12
-47.29
-38.60
-27.28
-15.07
-3.71
5.58
12.34
16.87
19.95
22.34
24.53
26.57
28.31
29.49
30.05
30.10
29.92
29.77
29.80
29.97
30.09
29.99
29.52
28.69
27.56
26.24
24.79
23.28
21.68
19.90
17.83
15.33
12.36
8.97
5.31
1.50
-2.45
-6.66
-11.37
-16.73
-22.64
-28.77
-34.66
-40.03
-44.86
-49.33
-53.41
-56.57
-57.80
-55.95
-50.38
-41.37
-30.25
-18.84
-8.88
-1.31
3.85
7.22
9.68
11.82
13.83
15.54
16.73
17.30
17.42
17.45
17.77
18.50
19.49
20.33
20.54
19.78
18.07
15.70
13.11
10.66
8.52
6.62
4.78
2.84
0.66
-1.78
-4.50
-7.54
-10.87
-14.40
-17.92
-21.20
-24.09
-26.72
-29.47
-32.83
-37.09
-41.97
-46.58
-49.55
-49.60
-46.00
-38.97
-29.57
-19.32
-9.69
-1.60
4.65
9.32
12.84
15.67
18.05
20.03
21.55
22.52
22.94
22.94
22.77
22.73
23.01
23.53
23.98
23.94
23.06
21.32
19.01
16.58
14.45
12.74
11.27
9.61
7.33
4.14
0.05
-4.68
-9.66
-14.43
-18.70
-22.34
-25.47
-28.38
-31.51
-35.22
-39.71
-44.84
-50.04
-54.40
-56.84
-56.43
-52.75
-46.03
-37.12
-27.27
-17.74
-9.39
-2.56
2.89
7.36
11.20
14.55
17.31
19.24
20.18
20.23
19.72
19.20
19.26
20.27
22.28
25.00
27.88
30.33
31.88
32.31
31.65
30.13
28.00
25.43
22.52
19.31
15.82
12.17
8.54
5.08
1.85
-1.23
-4.35
-7.71
-11.49
-15.87
-20.99
-26.97
-33.84
-41.32
-48.69
-54.76
-58.13
-57.62
-52.71
-43.88
-32.53
-20.60
-9.89
-1.52
4.35
8.40
11.72
15.20
19.17
23.35
27.03
29.60
30.85
31.10
30.96
31.02
31.51
32.31
33.00
33.21
32.78
31.76
30.37
28.72
26.83
24.61
22.05
19.26
16.47
13.90
11.59
9.38
7.06
4.51
1.86
-0.67
-2.88
-4.80
-6.79
-9.37
-13.06
-18.09
-24.25
-30.97
-37.31
-42.22
-44.65
-43.87
-39.64
-32.39
-23.10
-13.11
-3.72
4.18
10.31
14.94
18.55
21.54
24.06
26.06
27.49
28.45
29.23
30.12
31.25
32.49
33.53
34.04
33.85
32.99
31.56
29.66
27.24
24.29
20.86
17.14
13.40
9.88
6.66
3.66
0.70
-2.42
-5.79
-9.39
-13.10
-16.67
-19.83
-22.41
-24.38
-25.98
-27.73
-30.22
-33.94
-38.91
-44.62
-50.02
-53.77
-54.66
-52.00
-45.85
-36.99
-26.66
-16.16
-6.50
1.78
8.61
14.16
18.65
22.28
25.18
27.45
29.21
30.56
31.66
32.64
33.57
34.41
35.06
35.37
35.19
34.44
33.17
31.53
29.75
28.07
26.62
25.44
24.43
23.45
22.40
21.26
20.11
19.06
18.10
17.11
15.74
13.55
10.09
5.07
-1.53
-9.37
-17.77
-25.72
-32.05
-35.64
-35.64
-31.84
-24.76
-15.62
-6.03
2.50
9.00
13.25
15.67
16.92
17.52
17.61
16.97
15.40
12.95
10.11
7.57
5.92
5.35
5.56
5.95
5.95
5.23
3.85
2.09
0.32
-1.20
-2.43
-3.48
-4.59
-5.91
-7.48
-9.16
-10.79
-12.25
-13.58
-15.06
-17.00
-19.66
-23.11
-27.19
-31.56
-35.81
-39.44
-41.92
-42.63
-41.08
-37.07
-30.91
-23.38
-15.60
-8.56
-2.76
1.88
5.92
9.95
14.25
18.64
22.56
25.44
27.07
27.69
27.89
28.17
28.70
29.16
28.98
27.64
25.07
21.70
18.24
15.34
13.31
11.99
10.92
9.59
7.66
5.10
2.12
-0.93
-3.76
-6.14
-8.12
-9.94
-12.01
-14.79
-18.62
-23.47
-28.94
-34.15
-38.06
-39.68
-38.41
-34.22
-27.66
-19.69
-11.41
-3.81
2.42
6.98
9.86
11.25
11.47
10.79
9.47
7.74
5.87
4.30
3.46
3.76
5.37
8.13
11.56
15.12
18.42
21.37
24.03
26.39
28.01
27.93
24.93
18.01
6.94
-7.43
-23.26
-38.18
-50.01
-57.37
-60.00
-58.74
-55.16
-50.99
-47.59
-45.57
-44.68
-43.98
-42.25
-38.42
-32.00
-23.20
-12.93
-2.47
6.90
14.18
18.80
20.69
20.21
18.14
15.54
13.63
13.48
15.75
20.30
26.17
31.76
35.34
35.72
32.62
26.73
19.30
11.55
4.25
-2.28
-8.04
-12.88
-16.36
-17.89
-17.04
-13.86
-9.04
-3.74
0.73
3.25
3.22
0.66
-3.69
-8.51
-12.25
-13.51
-11.41
-5.84
2.51
12.43
22.47
31.37
38.36
43.38
47.00
50.13
53.51
57.23
60.64
62.61
62.13
58.77
52.87
45.34
37.24
29.58
23.18
18.65
16.27
15.65
15.56
14.05
9.27
0.38
-11.58
-23.88
-32.94
-35.80
-31.41
-20.97
-7.53
5.16
13.72
15.98
11.22
0.16
-15.27
-32.36
-48.09
-59.74
-65.42
-64.57
-57.96
-47.38
-35.21
-23.75
-14.73
-9.07
-6.81
-7.38
-9.79
-12.95
-15.97
-18.22
-19.43
-19.62
-18.98
-17.87
-16.70
-15.84
-15.58
-16.06
-17.21
-18.82
-20.63
-22.40
-23.93
-25.16
-25.97
-26.31
-26.11
-25.44
-24.52
-23.81
-23.87
-25.12
-27.60
-30.83
-33.87
-35.67
-35.41
-32.82
-28.20
-22.33
-16.10
-10.30
-5.41
-1.56
1.35
3.64
5.57
7.25
8.60
9.39
9.52
9.13
8.72
9.00
10.61
13.74
18.07
22.81
27.09
30.27
32.18
33.05
33.25
33.03
32.41
31.17
29.11
26.22
22.77
19.23
16.03
13.33
10.91
8.17
4.47
-0.66
-7.26
-14.75
-22.09
-27.96
-31.16
-30.96
-27.27
-20.72
-12.49
-3.95
3.67
9.68
13.98
16.90
18.95
20.52
21.80
22.81
23.54
24.07
24.60
25.35
26.43
27.68
28.73
29.12
28.52
26.90
24.55
21.90
19.31
16.86
14.30
11.28
7.60
3.45
-0.71
-4.32
-7.13
-9.29
-11.33
-13.94
-17.61
-22.48
-28.28
-34.37
-39.83
-43.61
-44.70
-42.40
-36.65
-28.11
-18.09
-8.14
0.43
6.90
11.25
13.99
15.74
16.97
17.93
18.69
19.40
20.34
21.85
24.11
26.97
29.96
32.46
34.00
34.42
33.91
32.88
31.68
30.50
29.34
28.07
26.47
24.34
21.47
17.73
13.12
7.89
2.46
-2.71
-7.41
-11.81
-16.55
-22.35
-29.72
-38.51
-47.84
-56.10
-61.39
-62.06
-57.16
-46.85
-32.40
-15.83
0.66
15.36
27.44
36.97
44.66
51.27
57.33
62.95
67.81
71.30
72.63
70.96
65.66
56.58
44.17
29.45
13.70
-1.98
-16.84
-30.47
-42.55
-52.61
-60.05
-64.43
-65.78
-64.69
-62.06
-58.65
-54.81
-50.49
-45.63
-40.47
-35.72
-32.14
-30.23
-29.74
-29.82
-29.43
-27.90
-25.33
-22.41
-20.00
-18.54
-17.77
-16.87
-14.84
-11.06
-5.60
0.85
7.26
12.71
16.73
19.30
20.80
21.66
22.16
22.38
22.27
21.81
21.14
20.58
20.45
20.93
21.92
23.02
23.75
23.71
22.81
21.28
19.46
17.68
16.01
14.34
12.50
10.44
8.35
6.51
5.14
4.21
3.40
2.34
0.82
-1.04
-2.83
-4.06
-4.51
-4.32
-3.99
-4.20
-5.56
-8.40
-12.64
-17.73
-22.69
-26.27
-27.30
-24.97
-19.19
-10.59
-0.46
9.68
18.42
24.79
28.43
29.50
28.62
26.54
24.01
21.53
19.16
16.61
13.32
8.86
3.12
-3.49
-10.33
-16.74
-22.40
-27.37
-31.92
-36.25
-40.26
-43.64
-46.04
-47.30
-47.64
-47.48
-47.29
-47.30
-47.46
-47.47
-47.02
-45.84
-43.83
-41.13
-38.02
-34.91
-32.24
-30.32
-29.25
-28.81
-28.44
-27.41
-24.97
-20.66
-14.44
-6.72
1.64
9.74
16.73
22.07
25.57
27.34
27.73
27.15
26.04
24.80
23.72
22.98
22.67
22.72
23.05
23.48
23.82
23.88
23.52
22.63
21.23
19.43
17.35
15.10
12.70
10.13
7.38
4.53
1.74
-0.80
-2.94
-4.65
-6.06
-7.53
-9.49
-12.35
-16.31
-21.14
-26.18
-30.44
-32.86
-32.63
-29.48
-23.78
-16.45
-8.70
-1.66
3.92
7.78
10.08
11.14
11.26
10.55
9.06
6.90
4.39
2.00
0.19
-0.87
-1.40
-1.94
-3.09
-5.14
-7.94
-10.90
-13.33
-14.67
-14.79
-14.01
-12.88
-11.84
-11.02
-10.18
-8.82
-6.49
-2.94
1.80
7.46
13.71
20.26
26.82
32.93
37.92
41.00
41.64
39.95
36.90
34.05
32.98
34.63
39.01
45.31
52.41
59.38
65.72
71.33
76.02
79.40
80.82
79.65
75.65
69.15
61.01
52.17
43.06
33.37
22.19
8.76
-6.66
-22.22
-34.87
-41.43
-40.13
-31.57
-18.68
-5.54
4.24
8.83
8.54
5.17
0.90
-2.62
-4.74
-5.52
-5.33
-4.43
-3.08
-1.61
-0.79
-1.69
-5.14
-11.19
-18.68
-25.45
-29.17
-28.20
-22.37
-12.92
-1.81
9.10
18.69
26.66
33.17
38.43
42.47
45.21
46.63
47.00
46.76
46.50
46.76
47.92
50.26
53.84
58.48
63.63
68.37
71.66
72.58
70.61
65.65
57.91
47.54
34.39
18.14
-1.37
-23.44
-46.31
-67.45
-84.33
-95.43
-100.80
-101.89
-100.76
-99.21
-98.30
-98.32
-99.31
-101.38
-104.74
-109.37
-114.50
-118.66
-119.95
-116.89
-109.05
-97.24
-83.28
-69.36
-57.31
-48.06
-41.58
-37.06
-33.49
-29.99
-26.24
-22.31
-18.53
-15.06
-11.79
-8.41
-4.58
-0.32
4.03
7.93
10.92
12.76
13.55
13.48
12.71
11.30
9.19
6.44
3.24
-0.07
-3.11
-5.69
-7.81
-9.70
-11.57
-13.59
-15.82
-18.30
-21.12
-24.39
-28.11
-31.97
-35.28
-37.10
-36.52
-33.07
-26.94
-18.94
-10.20
-1.75
5.77
12.14
17.47
21.86
25.31
27.67
28.86
29.01
28.51
27.85
27.48
27.64
28.30
29.30
30.43
31.46
32.14
32.22
31.40
29.43
26.26
22.06
17.22
12.22
7.52
3.40
-0.06
-2.92
-5.42
-7.85
-10.57
-13.91
-18.07
-22.88
-27.77
-31.77
-33.75
-32.80
-28.60
-21.61
-12.85
-3.60
5.03
12.42
18.36
22.98
26.51
29.10
30.91
32.08
32.82
33.38
33.92
34.47
34.92
35.14
34.97
34.33
33.22
31.65
29.57
26.92
23.62
19.68
15.23
10.50
5.72
1.11
-3.31
-7.57
-11.81
-16.18
-20.83
-25.93
-31.64
-38.00
-44.76
-51.21
-56.22
-58.52
-57.15
-51.94
-43.65
-33.76
-23.83
-15.01
-7.71
-1.68
3.53
8.24
12.34
15.50
17.44
18.22
18.28
18.24
18.61
19.54
20.83
22.11
23.03
23.47
23.49
23.23
22.68
21.63
19.78
16.89
12.93
8.22
3.32
-1.16
-4.81
-7.53
-9.52
-11.26
-13.35
-16.26
-20.34
-25.61
-31.72
-37.88
-42.97
-45.73
-45.13
-40.71
-32.84
-22.70
-11.82
-1.62
7.10
14.25
20.28
25.66
30.52
34.58
37.36
38.57
38.34
37.25
36.04
35.27
35.15
35.45
35.73
35.47
34.34
32.29
29.58
26.68
24.01
21.80
19.91
17.90
15.24
11.62
7.08
2.04
-2.89
-7.20
-10.62
-13.27
-15.51
-17.91
-21.02
-25.22
-30.56
-36.59
-42.43
-46.84
-48.56
-46.68
-40.94
-31.80
-20.41
-8.23
3.34
13.35
21.42
27.67
32.54
36.45
39.67
42.22
44.07
45.22
45.82
46.07
46.14
46.07
45.77
45.09
43.99
42.54
40.84
38.95
36.90
34.62
32.15
29.58
27.05
24.65
22.35
19.97
17.32
14.26
10.81
7.09
3.26
-0.60
-4.47
-8.35
-12.22
-16.10
-20.09
-24.43
-29.46
-35.40
-42.15
-49.04
-54.90
-58.27
-57.91
-53.32
-44.96
-34.12
-22.50
-11.63
-2.40
5.01
11.03
16.21
20.93
25.23
28.90
31.74
33.74
35.07
36.04
36.84
37.56
38.11
38.42
38.41
38.11
37.54
36.72
35.59
34.04
31.98
29.31
26.09
22.45
18.64
14.96
11.69
8.92
6.51
4.13
1.41
-1.78
-5.36
-8.96
-12.20
-14.95
-17.43
-20.17
-23.79
-28.66
-34.64
-41.00
-46.53
-49.87
-49.98
-46.39
-39.43
-30.11
-19.80
-9.84
-1.19
5.73
11.00
14.99
18.12
20.65
22.68
24.20
25.20
25.82
26.30
26.83
27.48
28.10
28.42
28.23
27.51
26.45
25.30
24.19
22.99
21.46
19.37
16.66
13.54
10.41
7.58
5.18
3.09
0.98
-1.40
-4.15
-7.13
-10.09
-12.81
-15.26
-17.64
-20.28
-23.54
-27.63
-32.61
-38.26
-44.09
-49.24
-52.67
-53.27
-50.30
-43.72
-34.30
-23.44
-12.69
-3.21
4.51
10.68
15.78
20.23
24.05
27.02
28.83
29.45
29.20
28.68
28.47
28.91
29.98
31.29
32.39
32.88
32.59
31.54
29.86
27.70
25.14
22.23
19.04
15.73
12.50
9.54
6.98
4.79
2.82
0.83
-1.46
-4.27
-7.70
-11.64
-15.73
-19.43
-22.29
-24.08
-25.08
-25.97
-27.69
-30.96
-35.99
-42.18
-48.31
-52.83
-54.35
-52.18
-46.38
-37.81
-27.76
-17.56
-8.30
-0.60
5.38
9.80
12.98
15.20
16.71
17.69
18.40
19.11
20.11
21.58
23.45
25.38
26.93
27.75
27.73
27.06
26.12
25.23
24.46
23.60
22.28
20.25
17.40
13.98
10.38
7.05
4.35
2.36
0.92
-0.39
-2.03
-4.37
-7.55
-11.33
-15.27
-18.83
-21.69
-23.82
-25.53
-27.33
-29.77
-33.17
-37.50
-42.26
-46.48
-49.01
-48.79
-45.31
-38.79
-30.16
-20.75
-11.79
-4.11
2.07
6.89
10.63
13.47
15.57
17.10
18.35
19.69
21.32
23.22
25.07
26.49
27.26
27.40
27.15
26.79
26.41
25.91
25.07
23.66
21.64
19.08
16.18
13.17
10.30
7.72
5.53
3.67
2.00
0.30
-1.58
-3.61
-5.65
-7.45
-8.91
-10.11
-11.36
-13.12
-15.81
-19.71
-24.80
-30.68
-36.64
-41.63
-44.61
-44.76
-41.79
-36.06
-28.48
-20.24
-12.39
-5.62
-0.14
4.15
7.47
9.96
11.65
12.48
12.54
12.03
11.29
10.70
10.47
10.65
11.09
11.56
11.82
11.72
11.19
10.22
8.86
7.21
5.45
3.73
2.13
0.61
-0.98
-2.76
-4.80
-7.06
-9.40
-11.69
-13.78
-15.59
-17.09
-18.32
-19.51
-21.06
-23.43
-26.91
-31.33
-35.95
-39.59
-40.99
-39.33
-34.46
-27.02
-18.19
-9.22
-1.13
5.53
10.71
14.65
17.64
19.91
21.52
22.46
22.83
22.81
22.70
22.71
22.93
23.16
23.14
22.66
21.67
20.36
18.95
17.59
16.24
14.69
12.64
9.88
6.36
2.31
-1.86
-5.68
-8.75
-10.92
-12.41
-13.66
-15.23
-17.59
-20.98
-25.34
-30.40
-35.70
-40.57
-44.24
-45.91
-44.87
-40.81
-34.02
-25.31
-15.86
-6.88
0.76
6.76
11.28
14.75
17.60
20.06
22.16
23.83
25.05
25.97
26.85
27.89
29.08
30.17
30.75
30.42
28.97
26.50
23.33
19.89
16.54
13.39
10.39
7.33
4.01
0.30
-3.71
-7.82
-11.73
-15.20
-18.12
-20.61
-23.01
-25.74
-29.24
-33.67
-38.80
-43.97
-48.16
-50.23
-49.34
-45.19
-38.15
-29.12
-19.28
-9.77
-1.41
5.40
10.70
14.74
17.86
20.33
22.22
23.43
23.90
23.67
22.94
22.09
21.45
21.17
21.09
20.87
20.15
18.76
16.81
14.66
12.66
11.01
9.67
8.41
6.93
5.08
2.88
0.54
-1.67
-3.57
-5.12
-6.51
-8.03
-10.05
-12.83
-16.50
-21.06
-26.35
-32.01
-37.46
-41.83
-44.20
-43.77
-40.20
-33.73
-25.19
-15.69
-6.25
2.43
10.11
16.78
22.53
27.32
31.06
33.69
35.36
36.42
37.32
38.46
40.00
41.89
43.87
45.61
46.81
47.28
46.93
45.81
44.05
41.85
39.43
36.86
34.13
31.15
27.86
24.28
20.56
16.85
13.22
9.59
5.80
1.73
-2.60
-7.06
-11.53
-16.04
-20.81
-26.09
-31.94
-38.03
-43.59
-47.52
-48.81
-46.84
-41.68
-34.01
-24.99
-15.87
-7.66
-0.91
4.34
8.42
11.78
14.76
17.43
19.64
21.16
21.94
22.13
22.07
22.14
22.54
23.20
23.91
24.43
24.64
24.56
24.23
23.58
22.45
20.71
18.36
15.62
12.86
10.41
8.44
6.86
5.43
3.89
2.06
-0.08
-2.49
-5.04
-7.66
-10.32
-13.04
-15.94
-19.21
-23.05
-27.69
-33.16
-39.14
-44.91
-49.41
-51.49
-50.34
-45.80
-38.44
-29.45
-20.20
-11.78
-4.78
0.77
5.17
8.75
11.70
14.05
15.78
16.93
17.64
18.14
18.60
19.12
19.67
20.14
20.42
20.46
20.22
19.70
18.88
17.72
16.23
14.44
12.41
10.17
7.74
5.11
2.31
-0.55
-3.27
-5.61
-7.42
-8.75
-9.84
-11.04
-12.68
-14.95
-17.95
-21.67
-26.06
-30.98
-36.10
-40.82
-44.30
-45.66
-44.27
-40.00
-33.33
-25.20
-16.73
-8.94
-2.45
2.57
6.32
9.20
11.56
13.62
15.41
16.89
18.04
18.95
19.83
20.81
21.93
22.97
23.61
23.58
22.77
21.28
19.32
17.14
14.86
12.53
10.18
7.84
5.57
3.41
1.32
-0.77
-2.95
-5.26
-7.67
-10.12
-12.58
-15.13
-17.87
-20.96
-24.53
-28.67
-33.33
-38.29
-43.02
-46.78
-48.66
-47.94
-44.34
-38.21
-30.47
-22.21
-14.37
-7.43
-1.44
3.78
8.40
12.38
15.52
17.67
18.81
19.20
19.24
19.30
19.62
20.25
21.10
22.02
22.80
23.23
23.12
22.37
21.05
19.33
17.49
15.71
14.04
12.35
10.44
8.20
5.65
2.96
0.36
-2.01
-4.14
-6.12
-8.11
-10.25
-12.66
-15.52
-19.00
-23.21
-28.11
-33.34
-38.22
-41.80
-43.18
-41.73
-37.38
-30.61
-22.38
-13.75
-5.62
1.46
7.40
12.36
16.61
20.25
23.21
25.28
26.35
26.48
26.02
25.40
24.99
24.92
25.11
25.29
25.24
24.79
23.91
22.66
21.06
19.16
17.03
14.79
12.59
10.50
8.52
6.52
4.30
1.78
-1.05
-4.02
-6.93
-9.67
-12.25
-14.82
-17.62
-20.82
-24.56
-28.87
-33.64
-38.55
-42.98
-46.08
-46.91
-44.84
-39.80
-32.40
-23.79
-15.24
-7.73
-1.70
2.98
6.70
9.87
12.71
15.21
17.28
18.88
20.09
21.15
22.31
23.71
25.34
27.06
28.59
29.66
30.09
29.79
28.84
27.36
25.52
23.44
21.20
18.85
16.37
13.74
10.92
7.86
4.57
1.13
-2.33
-5.65
-8.73
-11.50
-14.05
-16.53
-19.24
-22.44
-26.32
-30.83
-35.59
-39.88
-42.75
-43.31
-41.01
-35.87
-28.53
-20.02
-11.49
-3.88
2.28
6.91
10.22
12.61
14.35
15.62
16.44
16.80
16.78
16.58
16.46
16.63
17.10
17.70
18.14
18.13
17.55
16.46
15.08
13.68
12.38
11.18
9.90
8.26
6.08
3.34
0.25
-2.83
-5.50
-7.59
-9.14
-10.45
-11.94
-13.95
-16.67
-20.10
-24.05
-28.27
-32.31
-35.61
-37.41
-37.00
-33.86
-27.96
-19.88
-10.67
-1.55
6.43
12.66
17.12
20.09
22.05
23.37
24.29
24.95
25.47
26.04
26.84
27.95
29.24
30.38
30.96
30.69
29.54
27.72
25.58
23.38
21.20
18.86
16.10
12.70
8.65
4.15
-0.42
-4.64
-8.21
-11.00
-13.16
-15.05
-17.13
-19.91
-23.70
-28.48
-33.80
-38.79
-42.43
-43.78
-42.29
-38.07
-31.82
-24.62
-17.60
-11.56
-6.80
-3.14
-0.22
2.26
4.36
5.93
6.88
7.30
7.55
8.10
9.20
10.75
12.27
13.19
13.16
12.25
10.92
9.77
9.15
9.05
9.05
8.58
7.18
4.76
1.58
-1.85
-5.02
-7.64
-9.69
-11.47
-13.36
-15.75
-18.85
-22.69
-27.06
-31.49
-35.31
-37.75
-38.13
-36.07
-31.66
-25.50
-18.56
-11.77
-5.83
-0.95
3.08
6.58
9.78
12.62
14.82
16.09
16.33
15.80
14.99
14.38
14.21
14.39
14.54
14.26
13.36
11.96
10.41
9.10
8.23
7.76
7.39
6.77
5.66
4.06
2.15
0.24
-1.43
-2.79
-3.99
-5.37
-7.35
-10.24
-14.25
-19.30
-25.03
-30.85
-35.97
-39.53
-40.84
-39.51
-35.60
-29.63
-22.47
-15.09
-8.26
-2.46
2.25
6.06
9.25
12.07
14.60
16.78
18.54
19.84
20.77
21.52
22.28
23.15
24.07
24.82
25.10
24.73
23.71
22.27
20.80
19.59
18.73
17.96
16.86
15.00
12.26
8.90
5.45
2.45
0.21
-1.37
-2.72
-4.39
-6.81
-10.19
-14.46
-19.39
-24.53
-29.30
-32.96
-34.79
-34.24
-31.12
-25.73
-18.75
-11.08
-3.59
3.11
8.73
13.28
16.91
19.80
22.07
23.73
24.79
25.37
25.68
26.03
26.61
27.42
28.18
28.48
28.02
26.71
24.69
22.31
19.90
17.68
15.70
13.86
11.94
9.75
7.12
4.02
0.61
-2.85
-6.07
-8.83
-11.11
-13.08
-15.02
-17.21
-19.93
-23.31
-27.37
-31.87
-36.30
-39.82
-41.50
-40.62
-36.96
-30.94
-23.49
-15.73
-8.67
-2.90
1.41
4.49
6.63
8.16
9.32
10.27
11.15
12.07
13.20
14.67
16.57
18.90
21.54
24.21
26.58
28.37
29.43
29.76
29.43
28.41
26.56
23.67
19.65
14.71
9.33
4.21
-0.08
-3.28
-5.52
-7.16
-8.61
-10.11
-11.67
-13.18
-14.60
-16.03
-17.74
-19.99
-22.81
-25.86
-28.39
-29.48
-28.40
-24.91
-19.43
-12.93
-6.52
-1.00
3.32
6.68
9.52
12.15
14.59
16.56
17.74
18.05
17.66
16.99
16.49
16.43
16.80
17.31
17.60
17.34
16.45
15.08
13.56
12.20
11.16
10.38
9.56
8.37
6.58
4.27
1.66
-0.90
-3.19
-5.14
-6.82
-8.40
-10.05
-11.88
-14.05
-16.65
-19.79
-23.46
-27.41
-31.16
-33.94
-34.96
-33.66
-29.94
-24.27
-17.51
-10.69
-4.60
0.37
4.30
7.49
10.27
12.73
14.78
16.24
17.04
17.29
17.28
17.29
17.46
17.78
18.06
18.12
17.87
17.34
16.60
15.75
14.81
13.72
12.37
10.74
8.86
6.86
4.89
3.12
1.56
0.12
-1.36
-3.06
-5.08
-7.39
-9.88
-12.45
-15.02
-17.64
-20.41
-23.51
-26.97
-30.66
-34.17
-36.88
-38.11
-37.28
-34.23
-29.25
-23.03
-16.44
-10.22
-4.80
-0.23
3.68
7.17
10.33
13.08
15.31
16.96
18.09
18.83
19.29
19.49
19.34
18.83
18.06
17.30
16.84
16.81
17.15
17.50
17.45
16.66
15.02
12.74
10.15
7.63
5.45
3.72
2.38
1.25
0.11
-1.21
-2.72
-4.38
-6.09
-7.84
-9.70
-11.83
-14.36
-17.36
-20.76
-24.35
-27.83
-30.78
-32.70
-33.07
-31.55
-28.06
-22.91
-16.76
-10.52
-5.01
-0.74
2.27
4.37
6.06
7.74
9.48
11.12
12.42
13.22
13.65
13.95
14.39
15.05
15.80
16.51
17.08
17.57
18.12
18.74
19.28
19.43
18.92
17.64
15.71
13.41
11.08
9.00
7.27
5.81
4.41
2.72
0.49
-2.35
-5.55
-8.68
-11.29
-13.23
-14.67
-16.09
-17.99
-20.66
-24.07
-27.84
-31.48
-34.42
-36.07
-35.94
-33.68
-29.25
-23.05
-15.89
-8.76
-2.54
2.32
5.80
8.20
9.90
11.16
12.08
12.72
13.13
13.47
13.87
14.41
15.01
15.48
15.63
15.37
14.82
14.20
13.75
13.52
13.38
13.02
12.18
10.77
8.98
7.13
5.52
4.26
3.25
2.24
1.04
-0.41
-2.05
-3.77
-5.57
-7.44
-9.48
-11.79
-14.48
-17.67
-21.47
-25.77
-30.21
-34.04
-36.37
-36.41
-33.86
-29.00
-22.65
-15.85
-9.54
-4.30
-0.26
2.73
4.99
6.75
8.15
9.16
9.72
9.81
9.63
9.47
9.63
10.33
11.52
12.92
14.16
14.91
15.04
14.59
13.76
12.72
11.60
10.45
9.28
8.07
6.83
5.53
4.14
2.63
0.95
-0.94
-3.04
-5.29
-7.62
-9.89
-12.03
-14.05
-16.11
-18.47
-21.36
-24.82
-28.54
-31.87
-33.92
-33.92
-31.47
-26.74
-20.43
-13.58
-7.16
-1.86
2.06
4.74
6.56
7.91
9.09
10.21
11.26
12.16
12.84
13.30
13.60
13.82
14.03
14.24
14.38
14.37
14.12
13.60
12.81
11.78
10.53
9.05
7.33
5.37
3.24
1.05
-1.05
-2.89
-4.40
-5.68
-6.94
-8.48
-10.52
-13.12
-16.19
-19.53
-23.02
-26.63
-30.31
-33.92
-37.03
-38.98
-39.06
-36.86
-32.44
-26.41
-19.66
-13.04
-7.11
-2.03
2.29
6.03
9.27
11.96
13.96
15.17
15.67
15.69
15.58
15.68
16.16
17.02
18.06
18.98
19.55
19.63
19.19
18.32
17.07
15.48
13.65
11.68
9.70
7.80
6.06
4.41
2.79
1.10
-0.70
-2.64
-4.73
-6.98
-9.40
-11.98
-14.70
-17.56
-20.63
-24.03
-27.71
-31.40
-34.46
-36.06
-35.43
-32.22
-26.65
-19.55
-12.02
-5.06
0.65
5.01
8.27
10.81
12.93
14.75
16.24
17.34
18.06
18.53
18.92
19.41
20.04
20.80
21.52
22.03
22.19
21.95
21.32
20.38
19.21
17.86
16.42
14.86
13.14
11.16
8.87
6.28
3.46
0.62
-2.02
-4.26
-6.03
-7.44
-8.75
-10.31
-12.47
-15.44
-19.24
-23.68
-28.32
-32.47
-35.31
-36.05
-34.19
-29.72
-23.25
-15.79
-8.53
-2.35
2.39
5.87
8.57
10.91
13.08
14.98
16.43
17.33
17.83
18.24
18.88
19.85
21.04
22.12
22.73
22.66
21.88
20.58
19.05
17.52
16.11
14.72
13.22
11.45
9.40
7.15
4.88
2.74
0.78
-1.03
-2.85
-4.84
-7.12
-9.73
-12.63
-15.75
-19.02
-22.41
-25.85
-29.18
-32.04
-33.86
-34.00
-32.01
-27.82
-21.85
-14.94
-8.00
-1.81
3.24
7.18
10.31
12.91
15.18
17.08
18.47
19.29
19.67
19.90
20.32
21.09
22.17
23.26
24.01
24.17
23.65
22.52
20.87
18.79
16.35
13.65
10.86
8.18
5.78
3.73
1.96
0.39
-1.12
-2.68
-4.32
-6.13
-8.21
-10.68
-13.60
-17.07
-21.10
-25.65
-30.58
-35.46
-39.59
-42.06
-42.08
-39.22
-33.73
-26.40
-18.35
-10.61
-3.86
1.66
6.10
9.68
12.65
15.11
17.06
18.51
19.52
20.24
20.85
21.54
22.42
23.45
24.42
25.10
25.25
24.78
23.76
22.35
20.72
18.95
17.09
15.13
13.16
11.26
9.53
7.93
6.36
4.62
2.56
0.12
-2.67
-5.66
-8.71
-11.68
-14.44
-16.99
-19.42
-21.98
-24.99
-28.65
-32.85
-37.02
-40.17
-41.27
-39.59
-35.07
-28.40
-20.70
-13.16
-6.61
-1.31
2.95
6.53
9.66
12.33
14.41
15.81
16.71
17.46
18.48
19.97
21.87
23.78
25.30
26.17
26.38
26.12
25.59
24.89
23.93
22.62
20.92
18.96
17.00
15.21
13.64
12.11
10.39
8.28
5.83
3.21
0.64
-1.72
-3.92
-6.11
-8.46
-11.09
-14.09
-17.52
-21.55
-26.23
-31.43
-36.58
-40.72
-42.76
-41.85
-37.76
-30.99
-22.65
-14.07
-6.35
-0.14
4.54
8.07
11.00
13.74
16.46
19.00
21.14
22.68
23.64
24.27
24.86
25.54
26.22
26.64
26.52
25.84
24.79
23.70
22.79
22.00
21.00
19.50
17.39
14.89
12.44
10.42
8.89
7.53
5.87
3.51
0.44
-3.00
-6.28
-9.02
-11.17
-13.02
-15.09
-17.83
-21.52
-26.09
-31.21
-36.28
-40.51
-43.07
-43.25
-40.69
-35.60
-28.73
-21.15
-13.93
-7.79
-2.90
1.01
4.39
7.56
10.61
13.33
15.49
16.97
17.92
18.65
19.52
20.67
22.04
23.36
24.31
24.63
24.23
23.14
21.51
19.52
17.31
15.01
12.70
10.45
8.29
6.23
4.30
2.47
0.73
-1.01
-2.84
-4.84
-7.03
-9.36
-11.70
-14.02
-16.46
-19.29
-22.84
-27.13
-31.76
-35.79
-38.01
-37.44
-33.73
-27.36
-19.45
-11.40
-4.27
1.43
5.83
9.33
12.37
15.04
17.22
18.69
19.41
19.65
19.85
20.41
21.47
22.83
24.06
24.77
24.81
24.30
23.49
22.55
21.45
20.02
18.14
15.83
13.32
10.88
8.69
6.69
4.62
2.22
-0.63
-3.84
-7.18
-10.38
-13.28
-15.96
-18.62
-21.54
-24.92
-28.90
-33.37
-38.06
-42.37
-45.53
-46.75
-45.41
-41.35
-34.95
-27.03
-18.63
-10.65
-3.72
1.95
6.44
9.98
12.82
15.13
17.04
18.63
19.95
21.05
22.00
22.85
23.72
24.64
25.61
26.54
27.24
27.49
27.09
25.93
24.03
21.56
18.76
15.89
13.15
10.67
8.41
6.25
4.02
1.60
-1.03
-3.75
-6.39
-8.77
-10.86
-12.78
-14.80
-17.27
-20.46
-24.53
-29.36
-34.48
-39.13
-42.31
-43.11
-40.95
-35.91
-28.68
-20.46
-12.48
-5.66
-0.34
3.66
6.79
9.50
11.98
14.23
16.11
17.63
18.88
20.10
21.43
22.88
24.24
25.27
25.71
25.51
24.72
23.53
22.08
20.49
18.79
17.00
15.13
13.25
11.42
9.71
8.07
6.37
4.45
2.13
-0.63
-3.70
-6.82
-9.66
-12.02
-13.85
-15.38
-17.02
-19.22
-22.32
-26.41
-31.20
-35.95
-39.70
-41.37
-40.20
-36.00
-29.26
-21.09
-12.80
-5.49
0.31
4.66
8.04
10.98
13.80
16.48
18.78
20.42
21.33
21.64
21.66
21.67
21.82
22.13
22.53
22.91
23.11
22.98
22.40
21.29
19.70
17.75
15.61
13.47
11.41
9.46
7.59
5.76
3.91
2.01
-0.03
-2.23
-4.55
-6.90
-9.16
-11.29
-13.41
-15.76
-18.62
-22.19
-26.39
-30.79
-34.62
-36.99
-37.08
-34.51
-29.49
-22.77
-15.41
-8.39
-2.33
2.59
6.52
9.66
12.12
13.88
14.88
15.16
14.92
14.50
14.23
14.32
14.81
15.54
16.30
16.85
17.05
16.88
16.41
15.74
14.97
14.12
13.16
11.94
10.33
8.20
5.55
2.53
-0.62
-3.58
-6.09
-8.07
-9.63
-11.03
-12.58
-14.55
-17.08
-20.19
-23.82
-27.73
-31.48
-34.42
-35.75
-34.77
-31.20
-25.35
-18.12
-10.67
-4.00
1.33
5.37
8.54
11.31
13.89
16.15
17.83
18.77
19.13
19.32
19.83
20.91
22.46
24.07
25.20
25.46
24.78
23.36
21.54
19.62
17.73
15.81
13.67
11.20
8.43
5.52
2.79
0.46
-1.40
-2.97
-4.53
-6.35
-8.61
-11.26
-14.14
-17.10
-20.01
-22.93
-26.04
-29.51
-33.40
-37.49
-41.16
-43.46
-43.40
-40.36
-34.43
-26.47
-17.88
-10.04
-3.86
0.43
3.20
5.13
6.81
8.61
10.56
12.58
14.50
16.18
17.54
18.53
19.18
19.59
19.85
20.03
20.07
19.82
19.15
17.97
16.30
14.28
12.10
9.91
7.82
5.82
3.85
1.81
-0.34
-2.57
-4.84
-7.09
-9.29
-11.46
-13.64
-15.93
-18.40
-21.19
-24.44
-28.22
-32.39
-36.45
-39.57
-40.78
-39.31
-34.97
-28.23
-20.13
-11.85
-4.40
1.74
6.55
10.27
13.19
15.52
17.32
18.62
19.53
20.27
21.09
22.12
23.35
24.52
25.36
25.62
25.27
24.42
23.28
22.02
20.69
19.21
17.51
15.57
13.50
11.49
9.69
8.10
6.64
5.09
3.27
1.11
-1.37
-4.09
-6.97
-9.97
-13.10
-16.41
-19.92
-23.67
-27.67
-31.81
-35.83
-39.11
-40.88
-40.34
-37.06
-31.18
-23.51
-15.26
-7.55
-1.13
3.87
7.73
10.83
13.40
15.48
17.02
17.99
18.55
18.94
19.41
20.02
20.71
21.30
21.57
21.38
20.70
19.57
18.08
16.33
14.43
12.48
10.55
8.67
6.79
4.83
2.73
0.44
-1.96
-4.31
-6.45
-8.27
-9.80
-11.20
-12.75
-14.74
-17.41
-20.81
-24.85
-29.10
-32.92
-35.52
-36.17
-34.45
-30.43
-24.62
-17.82
-10.87
-4.41
1.19
5.85
9.55
12.34
14.33
15.64
16.49
17.09
17.66
18.26
18.85
19.28
19.39
19.10
18.41
17.36
16.08
14.67
13.26
12.00
11.00
10.25
9.59
8.72
7.37
5.42
3.00
0.45
-1.84
-3.65
-5.03
-6.34
-8.00
-10.37
-13.58
-17.52
-21.98
-26.57
-30.86
-34.24
-36.01
-35.58
-32.64
-27.44
-20.75
-13.64
-7.11
-1.72
2.53
6.09
9.42
12.77
15.95
18.49
19.98
20.33
19.89
19.24
18.93
19.19
19.87
20.57
20.94
20.78
20.11
19.08
17.75
16.10
14.11
11.80
9.35
7.03
5.05
3.41
1.87
0.09
-2.21
-4.94
-7.83
-10.49
-12.68
-14.53
-16.44
-18.93
-22.37
-26.72
-31.46
-35.72
-38.57
-39.24
-37.37
-33.15
-27.17
-20.36
-13.66
-7.76
-2.98
0.75
3.73
6.26
8.55
10.65
12.59
14.37
16.07
17.74
19.37
20.85
22.00
22.69
22.86
22.63
22.12
21.42
20.49
19.24
17.58
15.54
13.26
10.95
8.78
6.80
4.97
3.15
1.23
-0.82
-2.93
-5.00
-6.99
-8.95
-11.05
-13.52
-16.53
-20.16
-24.32
-28.71
-32.82
-35.99
-37.54
-36.93
-33.96
-28.90
-22.44
-15.51
-9.00
-3.49
0.85
4.29
7.25
10.13
13.07
15.97
18.55
20.51
21.73
22.31
22.50
22.63
22.87
23.20
23.48
23.46
22.99
22.03
20.65
19.02
17.22
15.25
13.06
10.59
7.91
5.17
2.61
0.37
-1.58
-3.38
-5.24
-7.30
-9.60
-12.09
-14.72
-17.54
-20.70
-24.31
-28.31
-32.32
-35.59
-37.29
-36.71
-33.60
-28.26
-21.49
-14.29
-7.59
-1.91
2.58
6.07
8.81
10.98
12.67
13.83
14.51
14.84
15.09
15.57
16.47
17.81
19.41
20.93
22.06
22.62
22.59
22.11
21.35
20.42
19.30
17.91
16.13
13.94
11.43
8.73
5.99
3.27
0.57
-2.17
-4.94
-7.72
-10.40
-12.88
-15.21
-17.53
-20.10
-23.13
-26.64
-30.31
-33.53
-35.46
-35.33
-32.76
-27.88
-21.35
-14.11
-7.11
-0.99
3.97
7.81
10.73
12.91
14.48
15.52
16.13
16.48
16.73
17.04
17.46
17.95
18.41
18.71
18.73
18.37
17.63
16.56
15.27
13.89
12.51
11.08
9.49
7.58
5.29
2.66
-0.10
-2.75
-5.10
-7.12
-8.91
-10.67
-12.56
-14.73
-17.29
-20.33
-23.92
-27.96
-32.02
-35.40
-37.17
-36.56
-33.23
-27.54
-20.42
-13.06
-6.53
-1.39
2.32
5.01
7.17
9.17
11.12
12.91
14.32
15.25
15.74
15.96
16.10
16.34
16.75
17.30
17.88
18.34
18.57
18.50
18.09
17.37
16.33
14.92
13.08
10.75
7.92
4.74
1.46
-1.58
-4.11
-6.07
-7.66
-9.31
-11.46
-14.43
-18.30
-22.92
-27.94
-32.88
-37.18
-40.22
-41.40
-40.33
-36.91
-31.49
-24.73
-17.55
-10.74
-4.93
-0.31
3.19
5.96
8.41
10.93
13.64
16.36
18.74
20.38
21.06
20.93
20.39
19.90
19.80
20.09
20.50
20.66
20.24
19.12
17.37
15.23
12.95
10.76
8.74
6.87
5.04
3.14
1.11
-1.00
-3.10
-5.05
-6.83
-8.49
-10.23
-12.27
-14.85
-18.06
-21.81
-25.83
-29.61
-32.54
-33.96
-33.34
-30.50
-25.65
-19.43
-12.68
-6.23
-0.65
3.87
7.48
10.50
13.19
15.65
17.77
19.35
20.26
20.55
20.49
20.45
20.74
21.43
22.32
23.02
23.10
22.34
20.77
18.68
16.41
14.22
12.25
10.45
8.65
6.74
4.64
2.38
0.06
-2.26
-4.48
-6.58
-8.51
-10.26
-11.79
-13.17
-14.60
-16.41
-18.96
-22.47
-26.77
-31.18
-34.68
-36.13
-34.76
-30.46
-23.86
-16.12
-8.51
-1.98
3.11
6.93
9.92
12.47
14.75
16.62
17.89
18.43
18.34
17.91
17.53
17.43
17.71
18.16
18.46
18.28
17.50
16.21
14.65
13.12
11.78
10.60
9.37
7.88
5.97
3.67
1.16
-1.34
-3.66
-5.78
-7.73
-9.64
-11.65
-13.86
-16.34
-19.09
-22.05
-25.06
-27.82
-29.87
-30.67
-29.70
-26.72
-21.83
-15.55
-8.71
-2.17
3.44
7.89
11.24
13.70
15.44
16.51
16.87
16.61
16.00
15.48
15.43
16.06
17.22
18.50
19.36
19.37
18.33
16.37
13.93
11.49
9.50
8.09
7.11
6.17
4.87
3.03
0.77
-1.54
-3.53
-5.01
-6.05
-6.97
-8.11
-9.72
-11.92
-14.70
-18.08
-21.94
-26.07
-29.95
-32.84
-33.93
-32.65
-28.93
-23.30
-16.65
-9.98
-3.99
1.05
5.23
8.76
11.83
14.41
16.41
17.78
18.62
19.14
19.64
20.29
21.15
22.08
22.87
23.30
23.24
22.67
21.62
20.16
18.33
16.15
13.68
11.03
8.40
5.99
3.98
2.38
1.09
-0.12
-1.47
-3.12
-5.09
-7.31
-9.67
-12.07
-14.51
-17.07
-19.88
-23.02
-26.35
-29.50
-31.84
-32.69
-31.52
-28.20
-23.11
-17.00
-10.75
-5.11
-0.43
3.31
6.37
9.08
11.58
13.87
15.79
17.25
18.24
18.87
19.28
19.55
19.69
19.65
19.39
18.89
18.21
17.39
16.49
15.56
14.65
13.81
13.06
12.35
11.58
10.56
9.15
7.27
5.00
2.50
0.04
-2.13
-3.89
-5.25
-6.36
-7.57
-9.19
-11.55
-14.80
-18.85
-23.36
-27.69
-31.06
-32.69
-32.04
-28.99
-23.90
-17.50
-10.69
-4.27
1.23
5.64
9.07
11.76
13.96
15.78
17.25
18.33
19.00
19.33
19.47
19.59
19.86
20.31
20.82
21.13
20.99
20.24
18.91
17.21
15.40
13.67
12.02
10.27
8.19
5.67
2.80
-0.09
-2.62
-4.54
-5.87
-6.87
-7.95
-9.46
-11.59
-14.32
-17.59
-21.23
-25.06
-28.79
-31.91
-33.78
-33.83
-31.76
-27.72
-22.32
-16.37
-10.63
-5.56
-1.28
2.34
5.39
7.82
9.48
10.28
10.33
10.01
9.81
10.10
10.92
11.98
12.80
13.03
12.59
11.76
10.90
10.26
9.81
9.30
8.41
7.01
5.17
3.12
1.10
-0.79
-2.58
-4.37
-6.22
-8.10
-9.93
-11.70
-13.52
-15.59
-18.12
-21.18
-24.59
-27.84
-30.26
-31.16
-30.06
-26.94
-22.20
-16.61
-10.99
-6.01
-1.92
1.34
4.09
6.58
8.86
10.75
11.99
12.43
12.22
11.75
11.52
11.90
12.94
14.36
15.66
16.38
16.32
15.58
14.48
13.31
12.18
11.02
9.62
7.84
5.66
3.24
0.79
-1.53
-3.69
-5.73
-7.76
-9.86
-12.02
-14.29
-16.70
-19.41
-22.58
-26.30
-30.38
-34.28
-37.15
-38.13
-36.61
-32.55
-26.54
-19.58
-12.77
-6.89
-2.24
1.31
4.12
6.55
8.84
11.02
13.09
15.01
16.83
18.56
20.17
21.51
22.38
22.64
22.30
21.51
20.54
19.60
18.77
18.00
17.12
15.99
14.54
12.75
10.66
8.30
5.73
3.07
0.49
-1.84
-3.80
-5.40
-6.78
-8.16
-9.83
-12.07
-15.03
-18.75
-23.01
-27.28
-30.85
-32.94
-32.93
-30.57
-26.10
-20.18
-13.68
-7.44
-2.03
2.34
5.83
8.77
11.50
14.16
16.69
18.88
20.53
21.58
22.15
22.46
22.69
22.83
22.73
22.19
21.10
19.55
17.84
16.28
15.09
14.23
13.47
12.47
10.96
8.80
6.07
2.98
-0.16
-3.07
-5.50
-7.36
-8.71
-9.78
-10.98
-12.68
-15.11
-18.32
-22.05
-25.85
-29.08
-31.10
-31.28
-29.27
-25.14
-19.41
-13.03
-6.95
-1.88
1.96
4.84
7.21
9.39
11.39
12.97
13.88
14.10
13.88
13.67
13.78
14.28
14.91
15.26
15.00
14.10
12.84
11.63
10.82
10.41
10.08
9.34
7.78
5.34
2.26
-0.96
-3.83
-6.06
-7.64
-8.74
-9.67
-10.73
-12.24
-14.48
-17.58
-21.46
-25.68
-29.44
-31.75
-31.84
-29.39
-24.75
-18.80
-12.58
-6.96
-2.34
1.34
4.36
6.96
9.25
11.16
12.60
13.53
14.06
14.36
14.63
14.94
15.24
15.39
15.24
14.68
13.77
12.67
11.57
10.58
9.62
8.51
7.02
5.03
2.62
0.01
-2.52
-4.74
-6.49
-7.82
-8.84
-9.79
-11.00
-12.86
-15.67
-19.55
-24.23
-29.04
-33.08
-35.40
-35.35
-32.78
-28.12
-22.19
-15.95
-10.14
-5.11
-0.87
2.82
6.15
9.25
12.06
14.43
16.25
17.45
18.09
18.28
18.25
18.18
18.23
18.43
18.66
18.72
18.47
17.90
17.11
16.32
15.58
14.81
13.76
12.15
9.87
7.05
3.95
0.95
-1.71
-3.94
-5.80
-7.43
-9.01
-10.74
-12.81
-15.49
-18.91
-23.02
-27.45
-31.40
-33.89
-34.00
-31.26
-25.92
-18.91
-11.53
-4.94
0.22
3.94
6.78
9.38
12.16
15.17
18.09
20.50
22.10
22.82
22.85
22.53
22.20
22.10
22.27
22.55
22.74
22.60
22.03
21.09
19.91
18.67
17.43
16.06
14.38
12.22
9.59
6.65
3.71
1.04
-1.21
-3.07
-4.74
-6.49
-8.55
-11.06
-14.13
-17.76
-21.86
-26.13
-30.00
-32.70
-33.46
-31.78
-27.72
-21.87
-15.25
-8.91
-3.62
0.35
3.16
5.20
6.87
8.31
9.48
10.26
10.62
10.68
10.67
10.76
10.97
11.13
11.09
10.78
10.30
9.83
9.48
9.20
8.69
7.62
5.80
3.31
0.47
-2.31
-4.71
-6.56
-7.88
-8.83
-9.72
-10.86
-12.62
-15.17
-18.50
-22.22
-25.65
-27.98
-28.52
-26.92
-23.27
-18.10
-12.13
-6.13
-0.65
3.95
7.54
10.12
11.78
12.66
12.95
12.93
12.91
13.16
13.83
14.87
16.02
16.90
17.20
16.78
15.78
14.55
13.49
12.81
12.42
11.96
10.94
9.09
6.38
3.15
-0.14
-3.06
-5.40
-7.17
-8.63
-10.12
-11.99
-14.45
-17.48
-20.73
-23.57
-25.22
-25.06
-22.89
-19.00
-14.08
-8.92
-4.16
-0.11
3.25
6.17
8.81
11.24
13.32
14.80
15.46
15.24
14.35
13.15
12.12
11.59
11.61
12.03
12.52
12.84
12.87
12.62
12.13
11.39
10.28
8.73
6.76
4.53
2.33
0.44
-1.00
-2.05
-2.95
-4.05
-5.71
-8.16
-11.48
-15.45
-19.61
-23.24
-25.57
-25.91
-24.00
-20.04
-14.74
-9.02
-3.79
0.43
3.55
5.91
7.96
9.98
11.95
13.64
14.73
15.18
15.17
15.08
15.26
15.80
16.50
17.01
17.03
16.52
15.66
14.80
14.21
13.93
13.77
13.38
12.43
10.77
8.52
5.97
3.44
1.16
-0.83
-2.63
-4.45
-6.46
-8.83
-11.67
-15.05
-18.90
-22.94
-26.63
-29.25
-30.09
-28.75
-25.26
-20.12
-14.11
-8.00
-2.39
2.41
6.29
9.27
11.40
12.72
13.34
13.39
13.09
12.77
12.68
13.02
13.72
14.49
14.96
14.83
14.07
12.95
11.88
11.10
10.53
9.80
8.40
6.13
3.10
-0.23
-3.31
-5.81
-7.73
-9.30
-10.85
-12.57
-14.55
-16.77
-19.27
-22.07
-25.13
-28.20
-30.77
-32.21
-31.92
-29.63
-25.48
-20.03
-14.06
-8.30
-3.24
0.94
4.34
7.17
9.57
11.55
13.01
13.80
13.87
13.26
12.13
10.68
9.13
7.60
6.19
4.88
3.69
2.59
1.56
0.53
-0.64
-2.06
-3.87
-6.05
-8.47
-10.87
-12.94
-14.49
-15.47
-16.09
-16.65
-17.54
-19.02
-21.12
-23.59
-25.87
-27.28
-27.12
-24.97
-20.84
-15.22
-8.89
-2.66
2.84
7.36
10.98
13.93
16.38
18.39
19.85
20.68
20.90
20.71
20.40
20.23
20.31
20.56
20.76
20.66
20.05
18.87
17.12
14.85
12.18
9.23
6.18
3.26
0.72
-1.31
-2.82
-3.98
-5.11
-6.51
-8.54
-11.38
-15.03
-19.23
-23.42
-26.85
-28.78
-28.70
-26.53
-22.64
-17.71
-12.35
-7.05
-1.98
2.77
7.09
10.82
13.75
15.76
16.97
17.63
18.02
18.37
18.75
19.12
19.45
19.72
19.94
20.07
20.07
19.81
19.26
18.48
17.51
16.35
14.83
12.67
9.64
5.72
1.15
-3.59
-7.95
-11.67
-14.73
-17.43
-20.20
-23.35
-26.86
-30.38
-33.29
-34.85
-34.47
-31.91
-27.38
-21.52
-15.17
-9.12
-3.84
0.60
4.41
7.84
10.98
13.68
15.64
16.66
16.77
16.33
15.87
15.83
16.39
17.38
18.34
18.82
18.54
17.54
16.09
14.55
13.12
11.77
10.27
8.34
5.85
2.89
-0.23
-3.16
-5.57
-7.35
-8.55
-9.41
-10.23
-11.34
-13.05
-15.55
-18.81
-22.57
-26.28
-29.15
-30.43
-29.55
-26.43
-21.49
-15.52
-9.46
-4.06
0.38
3.95
6.99
9.82
12.53
14.94
16.84
18.07
18.79
19.32
20.04
21.10
22.35
23.40
23.81
23.39
22.16
20.42
18.47
16.52
14.65
12.84
11.02
9.15
7.14
4.90
2.37
-0.41
-3.22
-5.75
-7.71
-9.05
-10.00
-10.99
-12.49
-14.80
-17.93
-21.59
-25.31
-28.45
-30.41
-30.67
-28.95
-25.31
-20.19
-14.27
-8.32
-2.93
1.62
5.30
8.23
10.54
12.25
13.33
13.80
13.80
13.61
13.58
13.93
14.75
15.90
17.05
17.89
18.17
17.84
16.98
15.81
14.48
13.06
11.53
9.73
7.56
5.05
2.34
-0.30
-2.57
-4.30
-5.53
-6.51
-7.63
-9.27
-11.66
-14.81
-18.49
-22.25
-25.57
-27.87
-28.67
-27.58
-24.49
-19.57
-13.35
-6.54
-0.01
5.50
9.53
11.95
12.98
13.06
12.69
12.25
12.00
11.94
12.01
12.10
12.20
12.31
12.51
12.79
13.08
13.26
13.19
12.79
12.04
10.93
9.48
7.70
5.57
3.16
0.63
-1.80
-3.85
-5.36
-6.37
-7.15
-8.13
-9.74
-12.29
-15.70
-19.57
-23.15
-25.59
-26.20
-24.61
-20.96
-15.83
-10.09
-4.63
-0.11
3.25
5.60
7.28
8.64
9.80
10.72
11.34
11.72
12.03
12.54
13.38
14.46
15.48
16.10
16.09
15.50
14.55
13.49
12.47
11.41
10.17
8.57
6.54
4.16
1.60
-0.94
-3.29
-5.39
-7.29
-9.13
-11.08
-13.26
-15.72
-18.45
-21.44
-24.57
-27.63
-30.20
-31.70
-31.55
-29.41
-25.35
-19.90
-13.83
-7.94
-2.73
1.65
5.30
8.39
11.00
13.07
14.53
15.36
15.64
15.59
15.42
15.30
15.23
15.14
14.90
14.38
13.55
12.47
11.28
10.17
9.31
8.79
8.57
8.40
7.93
6.86
5.09
2.81
0.39
-1.84
-3.75
-5.54
-7.53
-9.94
-12.79
-15.88
-18.95
-21.87
-24.62
-27.12
-29.10
-30.00
-29.18
-26.25
-21.35
-15.18
-8.78
-3.10
1.29
4.40
6.60
8.40
10.10
11.74
13.11
14.01
14.33
14.20
13.93
13.83
14.15
14.90
15.90
16.82
17.36
17.32
16.68
15.54
14.11
12.59
11.11
9.67
8.25
6.78
5.25
3.68
2.18
0.75
-0.66
-2.19
-4.00
-6.19
-8.75
-11.55
-14.49
-17.53
-20.76
-24.21
-27.63
-30.44
-31.81
-30.98
-27.68
-22.34
-15.86
-9.39
-3.77
0.64
3.90
6.24
7.85
8.79
9.07
8.88
8.52
8.40
8.79
9.68
10.83
11.91
12.66
12.95
12.80
12.33
11.63
10.84
10.06
9.37
8.83
8.35
7.73
6.72
5.12
2.92
0.31
-2.41
-5.01
-7.35
-9.55
-11.82
-14.38
-17.35
-20.77
-24.45
-28.03
-31.00
-32.71
-32.55
-30.15
-25.59
-19.46
-12.70
-6.27
-0.91
3.08
5.78
7.48
8.46
8.93
9.02
8.80
8.43
8.09
7.97
8.22
8.85
9.75
10.73
11.54
11.92
11.72
10.91
9.67
8.31
7.13
6.24
5.51
4.63
3.27
1.24
-1.34
-4.21
-7.00
-9.50
-11.68
-13.77
-16.05
-18.81
-22.14
-25.83
-29.31
-31.72
-32.23
-30.27
-25.90
-19.83
-13.10
-6.76
-1.46
2.63
5.72
8.10
9.94
11.25
12.03
12.34
12.39
12.49
12.86
13.58
14.50
15.35
15.89
15.95
15.53
14.72
13.73
12.69
11.58
10.29
8.59
6.28
3.32
-0.10
-3.61
-6.80
-9.37
-11.27
-12.66
-13.93
-15.50
-17.73
-20.80
-24.65
-28.92
-32.95
-35.92
-37.04
-35.80
-32.18
-26.66
-20.07
-13.32
-7.15
-2.00
2.00
4.94
6.96
8.27
9.09
9.67
10.32
11.29
12.72
14.55
16.56
18.39
19.72
20.30
20.07
19.17
17.83
16.25
14.54
12.66
10.47
7.89
4.92
1.71
-1.44
-4.16
-6.10
-7.08
-7.12
-6.51
-5.74
-5.42
-6.11
-8.10
-11.38
-15.48
-19.63
-22.92
-24.48
-23.79
-20.77
-15.83
-9.75
-3.45
2.26
6.91
10.44
13.11
15.31
17.28
19.08
20.57
21.63
22.26
22.71
23.31
24.27
25.55
26.85
27.76
28.01
27.49
26.43
25.13
23.83
22.63
21.42
19.96
18.01
15.42
12.23
8.65
5.03
1.70
-1.18
-3.63
-5.91
-8.40
-11.42
-15.22
-19.77
-24.83
-29.89
-34.23
-37.12
-37.96
-36.51
-32.97
-27.93
-22.18
-16.51
-11.50
-7.46
-4.42
-2.20
-0.57
0.74
1.98
3.32
4.88
6.65
8.52
10.29
11.76
12.76
13.24
13.24
12.88
12.24
11.36
10.25
8.92
7.46
5.92
4.40
2.93
1.50
0.07
-1.40
-2.96
-4.68
-6.69
-9.12
-12.03
-15.39
-18.99
-22.41
-25.09
-26.35
-25.62
-22.62
-17.53
-11.05
-4.24
1.87
6.55
9.59
11.26
12.04
12.33
12.37
12.28
12.09
11.94
11.90
11.97
12.06
11.97
11.59
10.95
10.21
9.47
8.65
7.55
5.87
3.47
0.42
-3.02
-6.50
-9.73
-12.49
-14.70
-16.39
-17.72
-19.02
-20.72
-23.17
-26.50
-30.36
-34.02
-36.50
-36.93
-34.93
-30.69
-24.94
-18.61
-12.56
-7.25
-2.72
1.29
5.04
8.58
11.76
14.35
16.26
17.63
18.84
20.23
21.96
23.85
25.49
26.46
26.49
25.59
24.00
22.04
19.97
17.87
15.72
13.45
11.02
8.43
5.76
3.06
0.41
-2.16
-4.65
-7.18
-10.01
-13.39
-17.38
-21.67
-25.51
-27.90
-27.91
-25.09
-19.69
-12.58
-4.89
2.40
8.74
14.03
18.42
22.08
25.07
27.36
28.98
30.10
30.94
31.65
32.25
32.54
32.26
31.29
29.73
27.88
26.11
24.58
23.19
21.62
19.43
16.36
12.41
7.94
3.47
-0.49
-3.63
-5.95
-7.74
-9.42
-11.48
-14.21
-17.77
-21.95
-26.17
-29.50
-30.92
-29.60
-25.35
-18.62
-10.46
-2.08
5.61
12.22
17.88
22.96
27.74
32.27
36.33
39.70
42.27
44.12
45.47
46.50
47.26
47.73
47.75
47.25
46.28
45.04
43.76
42.68
41.90
41.38
41.00
40.64
40.24
39.79
39.32
38.82
38.25
37.50
36.45
35.00
33.08
30.69
27.93
25.04
22.39
20.47
19.65
20.14
21.78
24.12
26.60
28.71
30.17
30.91
30.95
30.31
29.03
27.29
25.43
23.89
23.11
23.19
23.94
24.92
25.68
25.92
25.55
24.51
22.69
19.85
15.69
10.04
2.95
-5.30
-14.25
-23.30
-31.82
-39.20
-44.93
-48.80
-50.94
-51.94
-52.60
-53.72
-55.74
-58.59
-61.67
-64.15
-65.20
-64.32
-61.54
-57.33
-52.37
-47.35
-42.74
-38.69
-35.13
-32.01
-29.41
-27.58
-26.93
-27.63
-29.57
-32.25
-34.91
-36.82
-37.61
-37.36
-36.54
-35.84
-35.84
-36.83
-38.71
-41.17
-43.87
-46.62
-49.38
-52.24
-55.30
-58.59
-62.08
-65.70
-69.46
-73.41
-77.65
-82.24
-87.11
-91.91
-96.07
-98.83
-99.54
-97.81
-93.70
-87.74
-80.64
-73.12
-65.59
-58.18
-50.86
-43.68
-36.88
-30.86
-25.97
-22.31
-19.69
-17.72
-16.00
-14.33
-12.73
-11.36
-10.26
-9.21
-7.68
-5.01
-0.83
4.65
10.55
15.57
18.48
18.68
16.37
12.47
8.14
4.27
1.23
-1.12
-3.13
-5.06
-6.92
-8.41
-9.01
-8.09
-4.99
0.71
8.99
19.28
30.44
41.09
50.09
56.92
61.82
65.61
69.25
73.44
78.38
83.79
89.12
93.78
97.37
99.79
101.31
102.41
103.62
105.38
107.84
110.86
114.16
117.59
121.17
124.97
128.63
131.15
130.89
126.17
116.10
101.14
83.06
64.28
46.83
31.62
18.37
6.12
-5.96
-17.97
-29.29
-39.00
-46.32
-50.93
-52.89
-52.42
-49.82
-45.52
-40.16
-34.64
-30.00
-27.09
-26.26
-27.24
-29.20
-31.05
-31.82
-30.95
-28.41
-24.68
-20.46
-16.40
-12.87
-9.88
-7.21
-4.55
-1.76
1.06
3.55
5.22
5.64
4.53
1.80
-2.42
-7.90
-14.36
-21.48
-28.89
-36.10
-42.65
-48.08
-52.24
-55.35
-58.04
-61.05
-65.00
-70.03
-75.84
-81.86
-87.51
-92.50
-96.93
-101.06
-105.05
-108.67
-111.10
-111.16
-107.55
-99.46
-86.91
-70.95
-53.45
-36.47
-21.71
-9.95
-0.98
6.22
12.96
20.31
28.88
38.58
48.75
58.45
66.70
72.71
76.07
76.77
75.16
71.80
67.33
62.41
57.69
53.85
51.44
50.81
51.93
54.24
56.84
58.68
58.90
57.12
53.54
48.84
43.91
39.57
36.29
34.13
32.71
31.28
29.02
25.26
19.79
13.01
5.77
-0.79
-5.59
-7.89
-7.50
-4.79
-0.57
4.18
8.48
11.57
13.06
12.86
11.26
8.80
6.36
4.91
5.29
7.87
12.24
17.27
21.44
23.41
22.63
19.50
15.11
10.82
7.66
6.01
5.70
6.12
6.58
6.48
5.43
3.24
-0.02
-4.18
-8.95
-13.98
-18.88
-23.22
-26.64
-28.87
-29.88
-29.79
-28.77
-26.85
-23.84
-19.47
-13.65
-6.76
0.30
6.43
10.80
13.14
13.83
13.61
13.07
12.43
11.54
10.11
8.04
5.66
3.53
2.18
1.82
2.24
2.94
3.35
3.14
2.24
0.79
-0.97
-2.81
-4.54
-6.00
-7.08
-7.87
-8.65
-9.97
-12.31
-15.79
-19.90
-23.45
-24.97
-23.32
-18.25
-10.65
-2.29
4.95
9.79
12.06
12.68
12.96
13.96
15.94
18.24
19.73
19.41
16.84
12.25
6.31
-0.13
-6.37
-11.80
-15.86
-18.00
-17.76
-15.10
-10.44
-4.71
0.95
5.55
8.53
9.78
9.63
8.55
6.92
4.93
2.51
-0.47
-4.03
-7.89
-11.51
-14.12
-14.99
-13.71
-10.26
-5.03
1.33
8.06
14.41
19.69
23.36
25.17
25.22
23.99
22.13
20.30
18.93
18.17
17.97
18.16
18.55
18.92
19.03
18.57
17.35
15.35
12.76
9.92
7.10
4.42
1.82
-0.84
-3.73
-7.07
-11.13
-16.15
-22.21
-28.93
-35.43
-40.48
-42.98
-42.40
-38.96
-33.57
-27.38
-21.40
-16.25
-12.28
-9.64
-8.46
-8.66
-9.88
-11.47
-12.70
-13.13
-12.85
-12.35
-12.15
-12.38
-12.71
-12.55
-11.54
-9.74
-7.68
-5.83
-4.40
-3.33
-2.59
-2.51
-3.82
-7.24
-12.91
-20.13
-27.48
-33.39
-36.72
-37.09
-34.70
-30.05
-23.59
-15.68
-6.74
2.68
11.86
20.18
27.32
33.40
38.91
44.41
50.29
56.64
63.23
69.72
75.89
81.62
86.88
91.54
95.25
97.49
97.68
95.38
90.42
82.84
72.91
60.99
47.51
33.03
18.26
4.14
-8.21
-17.67
-23.45
-25.30
-23.56
-19.13
-13.15
-6.85
-1.29
2.72
4.66
4.41
2.31
-0.87
-4.17
-6.64
-7.79
-7.58
-6.44
-5.09
-4.33
-5.06
-8.14
-14.21
-23.33
-34.81
-47.28
-59.12
-69.07
-76.58
-81.89
-85.75
-88.86
-91.61
-94.01
-95.88
-97.14
-97.95
-98.62
-99.34
-99.88
-99.49
-97.17
-92.03
-83.72
-72.60
-59.64
-46.02
-32.70
-20.15
-8.37
2.79
13.33
22.88
30.78
36.34
39.23
39.68
38.44
36.64
35.24
34.73
34.99
35.42
35.30
34.20
32.12
29.42
26.57
23.87
21.37
18.94
16.42
13.68
10.66
7.26
3.39
-0.98
-5.70
-10.28
-14.00
-16.11
-16.11
-13.90
-9.81
-4.45
1.48
7.38
12.81
17.52
21.44
24.55
26.89
28.49
29.38
29.67
29.50
29.11
28.72
28.45
28.29
28.03
27.37
26.06
23.97
21.18
17.88
14.33
10.72
7.18
3.74
0.44
-2.74
-5.81
-8.92
-12.22
-15.81
-19.56
-22.96
-25.23
-25.55
-23.41
-18.90
-12.76
-6.09
0.05
4.94
8.42
10.72
12.26
13.35
14.04
14.27
13.88
12.84
11.31
9.58
8.03
6.92
6.33
6.13
6.01
5.63
4.72
3.18
1.03
-1.64
-4.63
-7.77
-10.81
-13.55
-15.91
-17.89
-19.66
-21.49
-23.70
-26.49
-29.76
-33.03
-35.51
-36.33
-34.85
-30.95
-25.11
-18.17
-11.06
-4.45
1.38
6.41
10.77
14.48
17.48
19.60
20.72
20.82
20.02
18.54
16.68
14.81
13.23
12.19
11.79
11.94
12.35
12.66
12.51
11.70
10.21
8.21
5.97
3.75
1.67
-0.28
-2.25
-4.39
-6.80
-9.49
-12.40
-15.40
-18.22
-20.48
-21.70
-21.42
-19.38
-15.67
-10.68
-5.03
0.59
5.60
9.68
12.78
15.06
16.82
18.29
19.49
20.30
20.54
20.24
19.65
19.28
19.62
20.88
22.88
25.02
26.68
27.44
27.28
26.62
26.02
25.85
26.21
26.84
27.35
27.44
27.03
26.29
25.49
24.86
24.67
25.27
27.18
30.94
36.77
44.20
52.05
58.70
62.67
63.13
60.12
54.34
46.77
38.23
29.22
19.97
10.55
1.08
-8.24
-17.17
-25.41
-32.70
-38.75
-43.41
-46.70
-48.82
-50.10
-50.80
-51.12
-51.15
-50.94
-50.65
-50.46
-50.54
-50.93
-51.55
-52.26
-52.97
-53.79
-54.97
-56.73
-59.00
-61.29
-62.72
-62.30
-59.44
-54.18
-47.24
-39.81
-33.03
-27.67
-24.02
-21.97
-21.38
-22.20
-24.50
-28.22
-32.96
-37.95
-42.35
-45.45
-46.98
-47.19
-46.69
-46.35
-47.03
-49.37
-53.59
-59.34
-65.68
-71.28
-74.77
-75.17
-72.14
-66.01
-57.61
-48.02
-38.32
-29.46
-22.15
-16.62
-12.52
-8.97
-4.74
1.25
9.45
19.53
30.34
40.30
47.93
52.26
53.06
50.78
46.37
40.96
35.58
31.06
27.88
26.20
25.82
26.32
27.09
27.55
27.25
26.02
23.99
21.56
19.18
17.23
15.82
14.79
13.80
12.43
10.38
7.52
3.90
-0.29
-4.85
-9.46
-13.79
-17.30
-19.40
-19.49
-17.24
-12.76
-6.59
0.39
7.20
13.07
17.60
20.75
22.68
23.61
23.71
23.04
21.64
19.61
17.19
14.71
12.57
11.02
10.11
9.66
9.36
8.88
8.04
6.76
5.07
3.02
0.60
-2.21
-5.36
-8.68
-11.86
-14.59
-16.71
-18.37
-19.95
-21.85
-24.23
-26.79
-28.81
-29.37
-27.84
-24.15
-18.90
-13.09
-7.74
-3.50
-0.54
1.29
2.22
2.39
1.82
0.59
-1.06
-2.75
-3.99
-4.44
-3.91
-2.36
0.16
3.49
7.35
11.25
14.56
16.68
17.29
16.56
15.13
13.86
13.57
14.75
17.36
20.92
24.66
27.78
29.80
30.83
31.66
33.56
37.84
45.32
55.94
68.75
82.19
94.58
104.65
111.69
115.48
115.97
113.09
106.79
97.29
85.32
72.29
59.94
49.90
43.21
39.93
39.30
39.97
40.48
39.54
36.30
30.34
21.76
11.16
-0.39
-11.55
-21.03
-27.88
-31.83
-33.41
-33.68
-33.91
-34.88
-36.58
-38.10
-38.06
-35.13
-28.62
-18.65
-6.04
8.15
23.00
37.82
52.02
64.89
75.53
83.01
86.66
86.19
81.74
73.76
62.79
49.44
34.40
18.56
2.96
-11.36
-23.70
-33.95
-42.62
-50.56
-58.46
-66.48
-74.08
-80.29
-84.19
-85.27
-83.60
-79.73
-74.41
-68.46
-62.74
-58.02
-54.91
-53.46
-53.08
-52.57
-50.61
-46.38
-39.89
-31.96
-23.80
-16.50
-10.68
-6.52
-3.92
-2.78
-3.08
-4.78
-7.65
-11.25
-14.96
-18.17
-20.36
-21.24
-20.68
-18.75
-15.68
-11.82
-7.60
-3.56
-0.25
1.78
2.00
-0.06
-4.80
-12.42
-22.93
-35.96
-50.77
-66.36
-81.64
-95.70
-107.93
-118.07
-126.11
-132.15
-136.33
-138.72
-139.42
-138.55
-136.26
-132.81
-128.47
-123.53
-118.22
-112.69
-106.99
-100.89
-93.87
-85.03
-73.25
-57.54
-37.55
-14.06
10.90
34.35
53.33
65.92
72.12
73.89
74.53
77.33
84.25
95.18
108.17
120.56
130.29
136.79
140.84
143.69
146.03
147.46
146.82
142.90
134.96
122.71
106.11
85.29
61.03
35.23
11.05
-7.83
-18.67
-20.98
-16.78
-9.72
-3.39
0.12
0.56
-1.02
-3.33
-5.55
-7.48
-9.17
-10.53
-11.13
-10.48
-8.29
-4.83
-1.04
1.69
1.97
-0.97
-6.95
-14.82
-22.92
-29.79
-34.84
-38.52
-42.05
-46.71
-53.33
-61.94
-71.77
-81.59
-89.94
-95.50
-97.22
-94.54
-87.49
-76.74
-63.51
-49.28
-35.46
-23.07
-12.64
-4.36
1.81
5.98
8.29
9.03
8.75
8.21
8.15
9.10
11.10
13.71
16.17
17.76
18.06
17.08
15.16
12.79
10.40
8.24
6.37
4.70
3.06
1.24
-0.96
-3.70
-7.19
-11.55
-16.77
-22.54
-28.11
-32.31
-33.82
-31.60
-25.37
-15.76
-4.17
7.70
18.46
27.33
34.30
39.74
44.08
47.58
50.29
52.25
53.59
54.61
55.57
56.59
57.53
58.15
58.23
57.69
56.64
55.20
53.37
50.95
47.69
43.41
38.18
32.37
26.43
20.70
15.28
10.08
4.82
-0.77
-6.96
-13.82
-21.20
-28.62
-35.18
-39.65
-40.91
-38.21
-31.59
-21.83
-10.26
1.73
13.10
23.31
32.25
39.91
46.14
50.72
53.44
54.40
54.13
53.42
53.02
53.35
54.30
55.36
55.91
55.53
54.15
52.04
49.62
47.16
44.68
41.87
38.32
33.71
28.00
21.52
14.88
8.69
3.36
-1.14
-5.22
-9.51
-14.69
-21.19
-29.11
-38.09
-47.29
-55.44
-61.10
-62.94
-60.23
-53.03
-42.28
-29.49
-16.29
-3.99
6.67
15.52
22.66
28.20
32.17
34.50
35.23
34.70
33.56
32.60
32.44
33.35
35.09
37.04
38.50
38.97
38.31
36.75
34.66
32.38
29.98
27.32
24.11
20.11
15.30
9.86
4.21
-1.22
-6.05
-10.19
-13.74
-17.01
-20.39
-24.22
-28.78
-34.22
-40.58
-47.59
-54.57
-60.39
-63.61
-62.94
-57.68
-48.12
-35.46
-21.50
-8.03
3.68
13.13
20.42
26.00
30.27
33.43
35.54
36.62
36.85
36.58
36.30
36.39
37.04
38.08
39.05
39.43
38.79
37.07
34.49
31.49
28.47
25.61
22.87
20.06
17.01
13.64
9.99
6.10
1.99
-2.31
-6.74
-11.10
-15.14
-18.64
-21.58
-24.24
-27.16
-30.93
-36.00
-42.29
-49.09
-55.14
-58.85
-58.77
-54.12
-45.12
-32.97
-19.53
-6.68
4.23
12.67
18.77
23.08
26.09
28.09
29.17
29.42
29.07
28.56
28.38
28.87
30.06
31.68
33.22
34.25
34.50
33.97
32.82
31.28
29.50
27.51
25.22
22.58
19.53
16.10
12.39
8.52
4.64
0.88
-2.63
-5.87
-8.91
-11.94
-15.21
-19.02
-23.68
-29.34
-35.90
-42.80
-49.03
-53.23
-54.06
-50.74
-43.33
-32.88
-21.04
-9.57
0.18
7.63
12.88
16.41
18.78
20.37
21.33
21.74
21.72
21.51
21.44
21.78
22.65
23.92
25.25
26.24
26.58
26.12
24.95
23.29
21.37
19.36
17.30
15.14
12.71
9.84
6.46
2.59
-1.57
-5.70
-9.51
-12.87
-15.83
-18.64
-21.62
-25.00
-28.97
-33.64
-39.07
-45.20
-51.56
-57.23
-60.83
-60.94
-56.65
-48.05
-36.32
-23.31
-10.95
-0.58
7.30
12.96
16.99
19.96
22.12
23.56
24.30
24.48
24.39
24.41
24.79
25.54
26.46
27.25
27.64
27.53
26.89
25.83
24.38
22.60
20.46
17.97
15.11
11.87
8.25
4.22
-0.15
-4.72
-9.27
-13.57
-17.50
-21.03
-24.29
-27.43
-30.68
-34.33
-38.70
-44.07
-50.45
-57.33
-63.59
-67.72
-68.24
-64.35
-56.25
-45.10
-32.66
-20.66
-10.28
-2.02
4.20
8.73
11.96
14.20
15.67
16.58
17.13
17.51
17.90
18.39
19.00
19.70
20.37
20.83
20.86
20.27
19.02
17.20
15.02
12.71
10.34
7.85
5.07
1.86
-1.76
-5.52
-9.05
-11.99
-14.14
-15.58
-16.58
-17.47
-18.52
-19.86
-21.59
-23.86
-26.91
-30.95
-35.93
-41.31
-45.96
-48.46
-47.51
-42.53
-33.90
-22.90
-11.27
-0.54
8.33
15.14
20.17
23.88
26.56
28.33
29.19
29.29
28.97
28.69
28.86
29.65
30.97
32.50
33.85
34.71
34.96
34.58
33.68
32.32
30.58
28.49
26.11
23.52
20.82
18.00
15.01
11.78
8.30
4.69
1.15
-2.10
-4.97
-7.57
-10.16
-13.11
-16.80
-21.49
-27.20
-33.61
-39.93
-45.01
-47.51
-46.42
-41.32
-32.74
-22.00
-10.79
-0.65
7.52
13.54
17.80
20.88
23.20
24.90
25.97
26.39
26.38
26.31
26.59
27.44
28.72
30.01
30.84
30.90
30.19
29.02
27.75
26.56
25.32
23.62
21.03
17.28
12.46
6.98
1.44
-3.58
-7.70
-10.76
-12.95
-14.61
-16.25
-18.34
-21.25
-25.13
-29.79
-34.69
-38.93
-41.53
-41.60
-38.62
-32.62
-24.16
-14.24
-4.03
5.48
13.60
20.02
24.73
27.80
29.25
29.07
27.31
24.27
20.49
16.63
13.29
10.76
9.04
7.89
7.12
6.72
6.88
7.83
9.55
11.58
13.14
13.34
11.63
8.08
3.34
-1.61
-5.90
-9.13
-11.42
-13.28
-15.40
-18.32
-22.30
-27.21
-32.46
-37.06
-39.81
-39.57
-35.70
-28.32
-18.37
-7.31
3.33
12.40
19.39
24.30
27.44
29.19
29.82
29.54
28.55
27.14
25.68
24.49
23.74
23.35
23.06
22.47
21.31
19.50
17.20
14.64
11.96
9.09
5.78
1.75
-3.05
-8.35
-13.71
-18.65
-22.96
-26.71
-30.22
-33.88
-38.01
-42.86
-48.50
-54.77
-61.13
-66.58
-69.79
-69.53
-65.12
-56.80
-45.76
-33.69
-22.22
-12.41
-4.60
1.41
5.95
9.32
11.63
12.97
13.56
13.79
14.13
14.88
16.07
17.42
18.53
19.02
18.79
17.99
16.93
15.86
14.81
13.56
11.71
8.96
5.27
0.94
-3.50
-7.52
-10.79
-13.32
-15.44
-17.66
-20.53
-24.44
-29.47
-35.24
-40.84
-44.99
-46.39
-44.16
-38.23
-29.38
-19.02
-8.64
0.61
8.22
14.24
18.94
22.58
25.17
26.60
26.85
26.16
25.05
24.15
23.94
24.48
25.41
26.10
26.06
25.11
23.52
21.78
20.28
19.03
17.71
15.84
13.08
9.42
5.21
0.94
-3.00
-6.47
-9.55
-12.54
-15.75
-19.42
-23.69
-28.46
-33.33
-37.55
-40.12
-40.07
-36.84
-30.53
-21.93
-12.26
-2.77
5.64
12.56
17.97
22.08
25.04
26.94
27.78
27.73
27.07
26.23
25.63
25.47
25.70
26.00
26.04
25.60
24.74
23.71
22.76
21.98
21.11
19.78
17.62
14.48
10.56
6.27
2.10
-1.63
-4.84
-7.69
-10.51
-13.71
-17.65
-22.47
-27.94
-33.35
-37.64
-39.62
-38.42
-33.78
-26.28
-17.10
-7.67
0.81
7.70
12.93
16.83
19.79
22.08
23.83
25.08
25.92
26.51
27.06
27.66
28.32
28.88
29.20
29.24
29.01
28.57
27.89
26.82
25.14
22.70
19.53
15.86
12.11
8.66
5.70
3.18
0.80
-1.90
-5.30
-9.66
-14.92
-20.66
-26.11
-30.22
-31.99
-30.73
-26.37
-19.50
-11.24
-2.87
4.60
10.67
15.27
18.67
21.09
22.64
23.31
23.14
22.35
21.32
20.46
20.01
19.94
19.92
19.53
18.51
16.85
14.76
12.63
10.71
9.03
7.37
5.35
2.64
-0.87
-5.00
-9.33
-13.36
-16.78
-19.55
-21.90
-24.26
-27.05
-30.55
-34.79
-39.43
-43.80
-46.96
-47.94
-46.04
-41.13
-33.71
-24.86
-15.76
-7.30
0.19
6.90
13.21
19.31
24.95
29.66
32.92
34.61
35.07
34.97
34.93
35.24
35.75
35.95
35.35
33.74
31.26
28.33
25.40
22.65
19.98
17.09
13.63
9.47
4.74
-0.21
-4.92
-9.07
-12.51
-15.36
-17.86
-20.27
-22.83
-25.68
-28.92
-32.59
-36.61
-40.70
-44.32
-46.67
-46.89
-44.32
-38.77
-30.69
-21.06
-11.06
-1.70
6.41
13.12
18.58
22.99
26.45
28.86
30.13
30.28
29.57
28.43
27.31
26.44
25.81
25.19
24.27
22.92
21.16
19.20
17.26
15.48
13.79
12.00
9.94
7.43
4.46
1.08
-2.62
-6.46
-10.21
-13.62
-16.45
-18.64
-20.32
-21.79
-23.45
-25.66
-28.65
-32.39
-36.62
-40.77
-44.04
-45.61
-44.83
-41.45
-35.77
-28.54
-20.77
-13.37
-6.93
-1.59
2.80
6.52
9.72
12.41
14.48
15.86
16.62
17.03
17.39
17.93
18.63
19.31
19.67
19.53
18.88
17.89
16.79
15.71
14.64
13.41
11.82
9.72
7.15
4.24
1.25
-1.56
-4.01
-6.05
-7.79
-9.42
-11.18
-13.21
-15.62
-18.47
-21.80
-25.60
-29.67
-33.54
-36.51
-37.84
-36.94
-33.69
-28.50
-22.14
-15.48
-9.26
-3.85
0.69
4.46
7.54
9.98
11.68
12.64
12.94
12.79
12.49
12.30
12.34
12.54
12.71
12.62
12.15
11.27
10.12
8.86
7.66
6.56
5.49
4.31
2.82
0.90
-1.45
-4.04
-6.60
-8.87
-10.72
-12.23
-13.68
-15.37
-17.60
-20.49
-23.98
-27.85
-31.70
-35.01
-37.13
-37.43
-35.47
-31.18
-24.97
-17.66
-10.21
-3.46
2.16
6.62
10.14
13.02
15.43
17.39
18.82
19.71
20.16
20.38
20.65
21.13
21.85
22.64
23.22
23.33
22.83
21.75
20.24
18.53
16.78
15.05
13.25
11.23
8.84
6.04
2.95
-0.22
-3.23
-5.90
-8.16
-10.08
-11.79
-13.45
-15.26
-17.41
-20.06
-23.21
-26.60
-29.61
-31.43
-31.29
-28.79
-24.11
-18.02
-11.61
-5.90
-1.58
1.21
2.74
3.53
4.08
4.74
5.57
6.46
7.19
7.62
7.75
7.69
7.59
7.48
7.23
6.66
5.61
4.13
2.45
0.90
-0.30
-1.15
-1.87
-2.77
-4.12
-5.95
-8.01
-9.97
-11.51
-12.51
-13.10
-13.65
-14.61
-16.32
-18.95
-22.46
-26.64
-31.13
-35.45
-39.01
-41.16
-41.29
-39.10
-34.68
-28.58
-21.66
-14.85
-8.83
-3.90
0.05
3.28
6.00
8.22
9.85
10.78
11.08
11.07
11.13
11.59
12.52
13.72
14.79
15.34
15.15
14.25
12.91
11.46
10.16
9.05
8.00
6.72
4.97
2.64
-0.18
-3.16
-5.97
-8.34
-10.23
-11.81
-13.39
-15.29
-17.75
-20.84
-24.47
-28.37
-32.05
-34.91
-36.24
-35.48
-32.37
-27.15
-20.48
-13.32
-6.57
-0.84
3.72
7.28
10.15
12.55
14.49
15.86
16.59
16.78
16.72
16.77
17.14
17.81
18.54
19.05
19.13
18.79
18.17
17.41
16.59
15.62
14.38
12.78
10.77
8.38
5.67
2.71
-0.35
-3.35
-6.05
-8.31
-10.15
-11.81
-13.70
-16.22
-19.58
-23.71
-28.10
-31.95
-34.36
-34.63
-32.44
-28.00
-21.95
-15.20
-8.61
-2.81
1.91
5.57
8.35
10.50
12.18
13.49
14.49
15.27
15.90
16.48
17.07
17.65
18.12
18.32
18.13
17.55
16.69
15.70
14.70
13.65
12.34
10.57
8.16
5.17
1.88
-1.35
-4.17
-6.38
-7.98
-9.17
-10.26
-11.64
-13.65
-16.45
-19.89
-23.44
-26.23
-27.38
-26.22
-22.64
-17.16
-10.74
-4.44
0.91
4.93
7.64
9.33
10.30
10.82
11.04
11.16
11.42
12.08
13.29
14.98
16.80
18.25
18.93
18.67
17.63
16.18
14.68
13.29
11.96
10.47
8.65
6.45
3.98
1.41
-1.10
-3.49
-5.79
-8.05
-10.38
-12.93
-15.90
-19.40
-23.38
-27.46
-30.97
-33.08
-33.04
-30.49
-25.63
-19.10
-11.81
-4.63
1.84
7.36
11.90
15.55
18.30
20.13
21.07
21.31
21.21
21.19
21.49
22.11
22.75
23.03
22.67
21.65
20.25
18.81
17.60
16.66
15.75
14.54
12.70
10.12
6.97
3.59
0.39
-2.35
-4.56
-6.40
-8.20
-10.32
-13.06
-16.57
-20.77
-25.30
-29.57
-32.78
-34.11
-33.00
-29.28
-23.32
-15.94
-8.16
-0.82
5.57
10.91
15.37
19.17
22.38
24.91
26.65
27.59
27.97
28.14
28.47
29.13
29.99
30.72
30.92
30.34
29.00
27.20
25.43
24.15
23.64
23.86
24.45
24.88
24.65
23.45
21.31
18.45
15.22
11.84
8.33
4.55
0.32
-4.49
-9.83
-15.49
-21.16
-26.48
-30.99
-34.22
-35.69
-35.09
-32.33
-27.70
-21.76
-15.20
-8.65
-2.55
2.93
7.77
11.93
15.33
17.86
19.41
20.05
20.03
19.72
19.45
19.43
19.63
19.85
19.85
19.47
18.70
17.63
16.43
15.18
13.90
12.48
10.79
8.73
6.28
3.50
0.50
-2.58
-5.64
-8.59
-11.41
-14.13
-16.81
-19.54
-22.36
-25.35
-28.57
-32.08
-35.92
-39.97
-43.85
-46.86
-48.18
-47.08
-43.30
-37.12
-29.41
-21.28
-13.75
-7.39
-2.31
1.75
5.14
8.02
10.33
11.92
12.70
12.86
12.81
13.02
13.75
14.96
16.29
17.30
17.70
17.45
16.74
15.88
15.05
14.28
13.43
12.29
10.71
8.63
6.16
3.51
0.87
-1.58
-3.78
-5.77
-7.67
-9.65
-11.88
-14.45
-17.44
-20.85
-24.66
-28.71
-32.66
-35.95
-37.87
-37.78
-35.31
-30.58
-24.20
-17.12
-10.28
-4.30
0.62
4.61
7.92
10.68
12.87
14.38
15.20
15.49
15.55
15.72
16.20
16.97
17.83
18.49
18.72
18.43
17.69
16.64
15.46
14.24
12.99
11.63
10.06
8.16
5.89
3.28
0.45
-2.41
-5.11
-7.53
-9.67
-11.65
-13.65
-15.82
-18.27
-21.04
-24.14
-27.45
-30.74
-33.54
-35.28
-35.38
-33.45
-29.44
-23.78
-17.14
-10.29
-3.87
1.72
6.30
9.89
12.60
14.57
15.94
16.90
17.60
18.24
18.99
19.95
21.12
22.37
23.46
24.11
24.12
23.43
22.13
20.45
18.60
16.71
14.81
12.82
10.67
8.35
5.88
3.37
0.87
-1.59
-4.07
-6.62
-9.25
-11.90
-14.47
-16.88
-19.17
-21.55
-24.33
-27.74
-31.76
-35.95
-39.51
-41.53
-41.26
-38.43
-33.36
-26.84
-19.84
-13.19
-7.41
-2.59
1.42
4.89
8.01
10.85
13.40
15.59
17.43
18.95
20.24
21.36
22.37
23.26
24.03
24.69
25.17
25.42
25.32
24.77
23.74
22.31
20.66
18.95
17.25
15.50
13.57
11.31
8.71
5.85
2.93
0.14
-2.42
-4.77
-7.05
-9.48
-12.28
-15.64
-19.68
-24.31
-29.21
-33.76
-37.19
-38.70
-37.77
-34.33
-28.88
-22.28
-15.53
-9.46
-4.49
-0.64
2.37
4.85
7.10
9.23
11.29
13.24
15.00
16.53
17.76
18.69
19.35
19.83
20.25
20.67
21.09
21.38
21.42
21.06
20.26
19.01
17.37
15.39
13.14
10.75
8.41
6.35
4.73
3.65
3.03
2.63
2.17
1.36
-0.00
-2.06
-4.93
-8.66
-13.24
-18.45
-23.78
-28.44
-31.55
-32.37
-30.61
-26.52
-20.85
-14.56
-8.48
-3.15
1.35
5.16
8.43
11.20
13.33
14.64
15.14
15.01
14.64
14.41
14.55
14.97
15.43
15.56
15.18
14.35
13.29
12.31
11.56
10.95
10.20
8.98
7.05
4.47
1.53
-1.32
-3.70
-5.44
-6.67
-7.70
-8.88
-10.48
-12.56
-15.05
-17.72
-20.26
-22.23
-23.13
-22.51
-20.15
-16.24
-11.40
-6.49
-2.35
0.53
2.15
2.85
3.16
3.45
3.86
4.28
4.51
4.47
4.24
4.07
4.18
4.69
5.52
6.46
7.27
7.84
8.13
8.20
8.04
7.50
6.35
4.41
1.69
-1.57
-4.90
-7.86
-10.15
-11.78
-13.07
-14.51
-16.57
-19.51
-23.31
-27.60
-31.81
-35.23
-37.21
-37.27
-35.23
-31.25
-25.79
-19.49
-13.03
-6.98
-1.75
2.54
5.91
8.50
10.46
11.91
12.94
13.61
14.02
14.33
14.67
15.13
15.67
16.22
16.62
16.81
16.80
16.61
16.26
15.76
15.07
14.09
12.77
10.99
8.70
5.94
2.90
-0.15
-2.95
-5.38
-7.64
-10.14
-13.36
-17.56
-22.55
-27.71
-32.04
-34.59
-34.64
-32.01
-27.08
-20.66
-13.71
-7.03
-1.08
4.10
8.67
12.82
16.55
19.69
22.07
23.63
24.55
25.14
25.71
26.33
26.90
27.17
26.99
26.31
25.27
23.99
22.59
21.09
19.50
17.78
15.87
13.62
10.90
7.63
3.91
-0.02
-3.82
-7.22
-10.13
-12.73
-15.33
-18.29
-21.87
-26.06
-30.58
-34.76
-37.74
-38.72
-37.18
-33.18
-27.30
-20.43
-13.45
-6.98
-1.24
3.81
8.30
12.29
15.69
18.34
20.06
20.78
20.61
19.86
18.94
18.29
18.13
18.46
18.99
19.39
19.39
18.97
18.24
17.42
16.62
15.77
14.73
13.29
11.37
9.02
6.43
3.89
1.63
-0.22
-1.72
-3.11
-4.69
-6.81
-9.67
-13.35
-17.69
-22.36
-26.80
-30.38
-32.41
-32.33
-29.90
-25.26
-19.03
-12.06
-5.21
0.93
6.10
10.35
13.83
16.65
18.83
20.27
20.97
21.04
20.77
20.47
20.39
20.61
21.03
21.41
21.51
21.18
20.39
19.28
18.05
16.90
15.91
15.00
13.96
12.57
10.72
8.44
5.93
3.42
1.05
-1.24
-3.63
-6.31
-9.34
-12.65
-16.05
-19.41
-22.62
-25.56
-27.95
-29.28
-29.00
-26.71
-22.44
-16.74
-10.50
-4.66
0.18
3.93
6.80
9.18
11.31
13.21
14.77
15.91
16.72
17.40
18.19
19.25
20.57
22.01
23.29
24.21
24.61
24.46
23.80
22.70
21.23
19.46
17.39
15.04
12.41
9.60
6.73
3.99
1.50
-0.68
-2.60
-4.41
-6.21
-8.14
-10.28
-12.72
-15.56
-18.88
-22.63
-26.56
-30.15
-32.68
-33.48
-32.16
-28.80
-23.89
-18.20
-12.48
-7.25
-2.70
1.22
4.66
7.76
10.54
12.96
14.99
16.58
17.79
18.66
19.29
19.76
20.13
20.47
20.78
21.03
21.14
21.02
20.55
19.64
18.27
16.48
14.37
12.09
9.78
7.52
5.39
3.42
1.62
-0.03
-1.62
-3.30
-5.18
-7.33
-9.72
-12.21
-14.65
-16.95
-19.15
-21.34
-23.55
-25.65
-27.27
-27.88
-26.93
-24.17
-19.77
-14.35
-8.73
-3.68
0.38
3.44
5.80
7.87
9.85
11.73
13.29
14.31
14.75
14.79
14.74
14.84
15.17
15.55
15.74
15.54
14.94
14.09
13.19
12.37
11.59
10.65
9.37
7.64
5.54
3.30
1.19
-0.62
-2.15
-3.54
-5.00
-6.63
-8.40
-10.12
-11.56
-12.61
-13.35
-14.05
-15.11
-16.87
-19.50
-22.94
-26.86
-30.72
-33.89
-35.70
-35.67
-33.65
-29.82
-24.75
-19.18
-13.85
-9.25
-5.64
-2.94
-0.96
0.54
1.76
2.84
3.82
4.70
5.47
6.13
6.74
7.35
7.99
8.63
9.21
9.64
9.85
9.91
9.93
10.00
10.11
10.08
9.61
8.45
6.52
4.00
1.29
-1.26
-3.39
-5.06
-6.39
-7.54
-8.65
-9.75
-10.87
-12.08
-13.56
-15.47
-17.94
-20.89
-23.99
-26.72
-28.49
-28.76
-27.23
-23.93
-19.25
-13.80
-8.35
-3.53
0.28
3.01
4.86
6.13
7.06
7.75
8.18
8.32
8.28
8.26
8.54
9.28
10.44
11.76
12.85
13.37
13.19
12.46
11.48
10.54
9.76
8.97
7.88
6.25
4.07
1.64
-0.65
-2.46
-3.72
-4.64
-5.56
-6.76
-8.40
-10.44
-12.84
-15.54
-18.48
-21.49
-24.19
-26.00
-26.33
-24.80
-21.37
-16.46
-10.77
-5.09
-0.05
3.99
6.99
9.12
10.64
11.71
12.44
12.79
12.79
12.53
12.15
11.84
11.69
11.65
11.59
11.36
10.90
10.28
9.60
8.97
8.40
7.76
6.88
5.59
3.82
1.62
-0.78
-3.10
-5.04
-6.42
-7.31
-7.93
-8.70
-10.03
-12.21
-15.32
-19.20
-23.47
-27.55
-30.79
-32.57
-32.41
-30.21
-26.21
-21.04
-15.47
-10.23
-5.75
-2.12
0.85
3.36
5.57
7.47
8.96
10.02
10.75
11.40
12.22
13.24
14.29
14.99
14.99
14.12
12.58
10.77
9.18
8.13
7.63
7.41
7.01
6.10
4.52
2.44
0.15
-2.06
-4.01
-5.75
-7.46
-9.36
-11.57
-14.17
-17.18
-20.54
-24.16
-27.72
-30.70
-32.42
-32.27
-29.94
-25.62
-19.96
-13.82
-7.98
-2.89
1.36
4.90
7.96
10.65
12.91
14.63
15.71
16.18
16.27
16.31
16.59
17.24
18.17
19.09
19.69
19.77
19.38
18.71
17.98
17.24
16.36
15.09
13.22
10.67
7.60
4.33
1.20
-1.46
-3.51
-4.96
-5.99
-6.85
-7.87
-9.37
-11.61
-14.70
-18.49
-22.54
-26.09
-28.33
-28.63
-26.75
-23.02
-18.10
-12.73
-7.46
-2.57
1.93
6.05
9.73
12.87
15.31
17.00
17.98
18.35
18.30
18.01
17.68
17.51
17.56
17.83
18.13
18.26
18.04
17.45
16.53
15.35
13.94
12.21
10.08
7.54
4.78
2.10
-0.18
-1.86
-2.96
-3.75
-4.62
-5.93
-7.89
-10.48
-13.53
-16.81
-20.12
-23.21
-25.80
-27.50
-27.85
-26.51
-23.41
-18.85
-13.47
-8.00
-3.07
1.04
4.41
7.32
10.02
12.58
14.83
16.49
17.36
17.50
17.21
16.87
16.74
16.80
16.83
16.57
15.93
15.05
14.19
13.54
13.02
12.39
11.32
9.71
7.63
5.41
3.29
1.40
-0.32
-2.02
-3.82
-5.78
-7.91
-10.29
-13.02
-16.23
-19.91
-23.79
-27.33
-29.81
-30.60
-29.35
-26.14
-21.45
-16.04
-10.65
-5.78
-1.62
1.89
4.92
7.56
9.74
11.38
12.47
13.14
13.69
14.39
15.37
16.52
17.56
18.25
18.45
18.23
17.80
17.36
16.97
16.54
15.85
14.67
12.87
10.50
7.74
4.88
2.21
-0.09
-1.96
-3.50
-4.92
-6.48
-8.46
-11.04
-14.24
-17.87
-21.54
-24.73
-26.92
-27.73
-26.97
-24.74
-21.32
-17.14
-12.67
-8.30
-4.30
-0.76
2.40
5.35
8.19
10.89
13.25
15.01
16.05
16.45
16.45
16.40
16.50
16.80
17.18
17.53
17.78
17.94
18.03
18.02
17.79
17.17
16.00
14.21
11.91
9.34
6.78
4.48
2.56
0.97
-0.47
-1.97
-3.67
-5.60
-7.78
-10.28
-13.29
-17.02
-21.48
-26.35
-30.83
-33.93
-34.80
-33.04
-28.93
-23.28
-17.16
-11.50
-6.80
-3.11
-0.09
2.69
5.53
8.38
10.99
13.01
14.26
14.82
15.04
15.34
16.01
17.07
18.29
19.35
20.02
20.27
20.22
19.97
19.57
18.95
17.98
16.62
14.91
13.01
11.05
9.10
7.19
5.25
3.25
1.18
-0.94
-3.04
-5.02
-6.86
-8.62
-10.49
-12.75
-15.63
-19.16
-23.01
-26.51
-28.82
-29.23
-27.46
-23.80
-18.99
-13.92
-9.34
-5.57
-2.54
0.08
2.64
5.34
8.13
10.76
12.96
14.49
15.27
15.46
15.30
15.13
15.16
15.43
15.80
16.01
15.85
15.25
14.26
13.00
11.55
9.97
8.30
6.60
5.04
3.72
2.70
1.86
0.99
-0.10
-1.47
-2.99
-4.49
-5.88
-7.22
-8.75
-10.70
-13.25
-16.30
-19.51
-22.37
-24.28
-24.76
-23.56
-20.76
-16.73
-12.05
-7.31
-3.00
0.69
3.75
6.35
8.68
10.80
12.73
14.42
15.88
17.17
18.38
19.56
20.62
21.38
21.67
21.41
20.66
19.58
18.30
16.91
15.38
13.71
11.96
10.23
8.60
7.05
5.43
3.56
1.38
-0.98
-3.27
-5.26
-6.87
-8.24
-9.62
-11.26
-13.27
-15.64
-18.27
-21.06
-23.82
-26.21
-27.79
-28.08
-26.76
-23.87
-19.79
-15.16
-10.61
-6.60
-3.29
-0.61
1.58
3.45
5.07
6.51
7.73
8.78
9.67
10.43
11.10
11.74
12.35
12.84
13.08
12.92
12.35
11.47
10.50
9.64
8.99
8.51
8.04
7.42
6.54
5.40
4.08
2.70
1.32
-0.04
-1.41
-2.86
-4.42
-6.04
-7.70
-9.36
-11.06
-12.94
-15.24
-18.16
-21.72
-25.60
-29.14
-31.45
-31.71
-29.56
-25.20
-19.42
-13.33
-7.91
-3.74
-0.82
1.23
2.95
4.71
6.57
8.36
9.88
11.02
11.86
12.55
13.27
14.07
14.91
15.64
16.17
16.46
16.51
16.34
15.95
15.33
14.51
13.55
12.58
11.64
10.66
9.45
7.80
5.66
3.13
0.48
-1.97
-4.01
-5.64
-6.96
-8.18
-9.45
-10.90
-12.61
-14.72
-17.30
-20.23
-23.18
-25.52
-26.59
-25.90
-23.34
-19.24
-14.26
-9.16
-4.56
-0.88
1.80
3.60
4.79
5.68
6.53
7.53
8.74
10.06
11.34
12.40
13.15
13.58
13.73
13.67
13.44
13.04
12.49
11.80
10.98
10.07
9.05
7.90
6.55
5.01
3.26
1.39
-0.51
-2.34
-4.00
-5.40
-6.53
-7.43
-8.22
-9.05
-10.13
-11.65
-13.76
-16.50
-19.72
-23.04
-25.90
-27.68
-27.87
-26.27
-23.08
-18.82
-14.19
-9.77
-5.91
-2.67
0.10
2.58
4.87
6.94
8.65
9.92
10.76
11.32
11.79
12.31
12.86
13.33
13.56
13.48
13.11
12.57
11.93
11.21
10.32
9.19
7.79
6.21
4.59
3.03
1.57
0.12
-1.39
-3.05
-4.87
-6.76
-8.62
-10.36
-11.97
-13.55
-15.27
-17.28
-19.63
-22.08
-24.17
-25.30
-24.94
-22.89
-19.33
-14.82
-10.02
-5.54
-1.69
1.49
4.12
6.36
8.26
9.78
10.84
11.43
11.61
11.60
11.67
12.12
13.09
14.57
16.35
18.06
19.33
19.90
19.72
18.93
17.77
16.51
15.34
14.27
13.20
11.93
10.30
8.24
5.83
3.23
0.58
-2.09
-4.83
-7.80
-11.07
-14.64
-18.39
-22.13
-25.69
-28.84
-31.24
-32.51
-32.30
-30.47
-27.28
-23.29
-19.23
-15.67
-12.85
-10.61
-8.50
-6.12
-3.20
0.15
3.63
6.84
9.47
11.47
12.94
14.09
15.10
16.04
16.85
17.40
17.65
17.60
17.32
16.80
16.00
14.88
13.36
11.48
9.31
6.97
4.55
2.16
-0.11
-2.12
-3.77
-5.06
-6.22
-7.54
-9.37
-11.86
-15.03
-18.67
-22.49
-26.14
-29.24
-31.32
-31.98
-30.94
-28.21
-24.18
-19.47
-14.74
-10.38
-6.49
-2.83
0.85
4.64
8.33
11.48
13.70
14.83
15.08
14.97
15.03
15.63
16.78
18.12
19.16
19.43
18.79
17.45
15.83
14.38
13.35
12.68
12.07
11.16
9.67
7.51
4.79
1.75
-1.31
-4.13
-6.55
-8.50
-10.09
-11.51
-13.03
-14.92
-17.36
-20.43
-24.05
-27.89
-31.35
-33.68
-34.13
-32.28
-28.23
-22.65
-16.51
-10.74
-5.90
-2.01
1.25
4.26
7.24
10.10
12.58
14.44
15.66
16.40
16.96
17.57
18.33
19.11
19.65
19.76
19.34
18.48
17.42
16.40
15.59
14.94
14.24
13.21
11.61
9.42
6.83
4.19
1.87
0.07
-1.24
-2.33
-3.62
-5.48
-8.11
-11.51
-15.48
-19.66
-23.61
-26.85
-28.93
-29.43
-28.16
-25.19
-20.88
-15.86
-10.75
-6.01
-1.83
1.87
5.25
8.35
11.12
13.44
15.25
16.62
17.71
18.68
19.57
20.25
20.56
20.37
19.71
18.74
17.66
16.66
15.76
14.86
13.75
12.18
9.97
7.10
3.76
0.34
-2.76
-5.22
-7.01
-8.40
-9.85
-11.83
-14.63
-18.22
-22.31
-26.38
-29.85
-32.18
-32.95
-31.90
-29.02
-24.57
-19.05
-13.17
-7.57
-2.68
1.41
4.88
8.03
11.02
13.84
16.32
18.22
19.47
20.16
20.47
20.62
20.78
20.95
21.06
21.04
20.83
20.43
19.89
19.29
18.66
18.03
17.30
16.35
14.94
12.93
10.30
7.20
3.94
0.86
-1.86
-4.22
-6.40
-8.66
-11.20
-14.09
-17.33
-20.86
-24.56
-28.25
-31.53
-33.79
-34.37
-32.80
-29.04
-23.61
-17.34
-11.15
-5.65
-1.02
2.93
6.54
10.05
13.46
16.55
19.09
20.91
22.04
22.67
23.02
23.24
23.38
23.42
23.25
22.82
22.12
21.23
20.23
19.17
18.09
16.89
15.47
13.68
11.48
8.90
6.08
3.23
0.47
-2.17
-4.74
-7.29
-9.79
-12.12
-14.14
-15.87
-17.52
-19.49
-22.17
-25.69
-29.73
-33.49
-35.96
-36.28
-34.11
-29.75
-24.00
-17.84
-12.01
-6.79
-2.06
2.49
7.09
11.63
15.77
19.12
21.46
22.88
23.70
24.25
24.76
25.22
25.44
25.27
24.65
23.73
22.76
21.95
21.30
20.64
19.68
18.21
16.22
13.94
11.70
9.75
8.09
6.49
4.67
2.40
-0.25
-2.99
-5.53
-7.61
-9.25
-10.61
-11.94
-13.46
-15.34
-17.73
-20.66
-23.96
-27.25
-29.85
-31.05
-30.30
-27.51
-23.03
-17.62
-12.09
-7.08
-2.88
0.54
3.42
6.04
8.54
10.94
13.14
14.97
16.32
17.18
17.68
17.97
18.17
18.34
18.44
18.41
18.16
17.70
17.03
16.17
15.09
13.77
12.20
10.45
8.62
6.82
5.13
3.55
2.05
0.58
-0.86
-2.26
-3.63
-5.04
-6.62
-8.53
-10.88
-13.70
-16.97
-20.51
-24.04
-27.13
-29.21
-29.72
-28.25
-24.81
-19.83
-14.07
-8.34
-3.25
1.02
4.60
7.73
10.54
12.96
14.78
15.89
16.37
16.55
16.80
17.40
18.38
19.55
20.60
21.27
21.48
21.20
20.51
19.45
18.06
16.37
14.48
12.51
10.55
8.67
6.83
5.01
3.14
1.21
-0.72
-2.59
-4.36
-6.08
-7.84
-9.78
-12.02
-14.58
-17.42
-20.48
-23.65
-26.76
-29.46
-31.27
-31.60
-30.01
-26.46
-21.39
-15.62
-10.11
-5.53
-2.11
0.45
2.68
5.03
7.65
10.36
12.81
14.69
15.93
16.69
17.20
17.64
18.06
18.42
18.69
18.84
18.98
19.13
19.23
19.08
18.47
17.24
15.45
13.32
11.16
9.24
7.64
6.33
5.14
3.88
2.45
0.80
-1.01
-2.94
-4.90
-6.83
-8.72
-10.63
-12.66
-14.99
-17.74
-20.86
-24.05
-26.76
-28.35
-28.37
-26.80
-24.05
-20.84
-17.88
-15.58
-13.92
-12.60
-11.28
-9.76
-8.08
-6.39
-4.77
-3.20
-1.55
0.27
2.23
4.19
5.97
7.51
8.84
10.04
11.08
11.82
11.99
11.39
10.03
8.17
6.22
4.46
3.03
1.81
0.58
-0.79
-2.33
-3.89
-5.36
-6.68
-7.94
-9.29
-10.88
-12.76
-14.92
-17.39
-20.19
-23.40
-26.91
-30.45
-33.46
-35.23
-35.10
-32.77
-28.39
-22.58
-16.24
-10.21
-5.07
-0.96
2.21
4.70
6.68
8.20
9.24
9.86
10.20
10.51
11.01
11.71
12.42
12.82
12.65
11.87
10.69
9.49
8.60
8.13
7.99
7.90
7.62
6.99
6.03
4.78
3.35
1.82
0.22
-1.37
-2.93
-4.50
-6.20
-8.24
-10.72
-13.56
-16.40
-18.68
-19.84
-19.42
-17.33
-13.87
-9.57
-5.06
-0.85
2.84
6.02
8.82
11.31
13.45
15.12
16.21
16.81
17.19
17.65
18.39
19.34
20.23
20.72
20.57
19.78
18.49
16.92
15.25
13.52
11.72
9.75
7.54
5.03
2.25
-0.65
-3.46
-5.91
-7.84
-9.26
-10.39
-11.54
-13.01
-14.92
-17.29
-20.00
-22.88
-25.69
-28.08
-29.58
-29.66
-27.93
-24.41
-19.56
-14.19
-9.13
-4.88
-1.47
1.46
4.38
7.48
10.65
13.47
15.51
16.58
16.80
16.54
16.23
16.14
16.33
16.68
16.96
16.94
16.57
15.90
15.11
14.38
13.80
13.33
12.80
12.00
10.79
9.13
7.09
4.77
2.25
-0.41
-3.16
-5.89
-8.53
-11.02
-13.38
-15.72
-18.18
-20.86
-23.76
-26.69
-29.28
-30.98
-31.24
-29.65
-26.15
-21.16
-15.38
-9.62
-4.49
-0.22
3.30
6.33
9.02
11.40
13.31
14.64
15.40
15.82
16.24
16.91
17.95
19.22
20.47
21.41
21.82
21.63
20.93
19.92
18.81
17.73
16.69
15.59
14.26
12.62
10.70
8.61
6.52
4.53
2.67
0.90
-0.87
-2.74
-4.75
-6.95
-9.42
-12.20
-15.35
-18.83
-22.43
-25.77
-28.26
-29.27
-28.34
-25.40
-20.80
-15.32
-9.81
-4.95
-1.02
2.11
4.80
7.39
10.00
12.51
14.60
16.04
16.77
16.96
16.91
16.93
17.14
17.53
17.95
18.23
18.28
18.16
17.93
17.67
17.35
16.87
16.09
14.90
13.23
11.11
8.62
5.91
3.16
0.50
-1.99
-4.28
-6.38
-8.31
-10.15
-12.02
-14.12
-16.62
-19.59
-22.88
-26.04
-28.40
-29.32
-28.42
-25.69
-21.51
-16.51
-11.25
-6.18
-1.54
2.54
6.02
8.86
11.08
12.79
14.15
15.32
16.35
17.23
17.88
18.25
18.37
18.34
18.29
18.26
18.29
18.31
18.33
18.35
18.47
18.74
19.18
19.75
20.36
20.83
21.03
20.82
20.27
19.52
18.86
18.55
18.75
19.43
20.38
21.31
21.94
22.06
21.58
20.47
18.76
16.61
14.22
11.92
10.02
8.70
7.85
7.14
6.12
4.42
1.95
-1.03
-4.06
-6.66
-8.55
-9.74
-10.41
-10.84
-11.21
-11.54
-11.80
-11.93
-11.96
-12.04
-12.39
-13.17
-14.48
-16.22
-18.17
-20.01
-21.47
-22.44
-23.09
-23.76
-24.84
-26.57
-28.91
-31.45
-33.73
-35.32
-36.11
-36.30
-36.28
-36.41
-36.92
-37.86
-39.13
-40.61
-42.15
-43.57
-44.53
-44.58
-43.22
-40.09
-35.12
-28.67
-21.44
-14.25
-7.71
-2.13
2.58
6.64
10.24
13.35
15.81
17.45
18.37
18.84
19.28
20.01
21.00
21.99
22.59
22.50
21.70
20.41
18.98
17.67
16.58
15.60
14.53
13.18
11.45
9.40
7.15
4.85
2.63
0.54
-1.45
-3.43
-5.48
-7.73
-10.24
-13.05
-16.16
-19.47
-22.74
-25.57
-27.45
-27.85
-26.46
-23.27
-18.64
-13.24
-7.81
-3.00
0.82
3.65
5.72
7.36
8.84
10.30
11.70
12.90
13.78
14.32
14.65
14.99
15.49
16.11
16.62
16.59
15.74
13.98
11.54
8.89
6.47
4.52
3.02
1.81
0.66
-0.49
-1.64
-2.76
-3.88
-5.09
-6.48
-8.04
-9.57
-10.87
-11.79
-12.46
-13.20
-14.44
-16.42
-19.00
-21.64
-23.50
-23.78
-22.03
-18.32
-13.32
-7.90
-2.88
1.29
4.62
7.45
10.14
12.91
15.71
18.29
20.39
21.83
22.65
22.98
23.07
23.12
23.31
23.72
24.34
25.05
25.71
26.13
26.16
25.71
24.74
23.23
21.16
18.54
15.42
11.94
8.31
4.75
1.43
-1.62
-4.39
-6.96
-9.40
-11.79
-14.22
-16.84
-19.77
-23.06
-26.59
-30.09
-33.15
-35.31
-36.17
-35.48
-33.19
-29.48
-24.74
-19.51
-14.33
-9.60
-5.51
-2.00
1.10
3.87
6.29
8.20
9.42
9.90
9.84
9.56
9.47
9.83
10.65
11.74
12.71
13.25
13.18
12.54
11.54
10.39
9.24
8.09
6.85
5.46
3.91
2.35
1.01
0.04
-0.51
-0.79
-1.12
-1.83
-3.20
-5.35
-8.14
-11.30
-14.45
-17.19
-19.15
-20.06
-19.78
-18.30
-15.79
-12.53
-8.89
-5.25
-1.82
1.33
4.25
7.06
9.76
12.24
14.28
15.63
16.19
16.04
15.41
14.65
14.05
13.76
13.74
13.82
13.80
13.56
13.08
12.47
11.84
11.24
10.63
9.86
8.77
7.32
5.58
3.68
1.80
0.00
-1.69
-3.34
-5.01
-6.76
-8.66
-10.82
-13.38
-16.43
-19.91
-23.51
-26.66
-28.68
-28.97
-27.26
-23.71
-18.89
-13.61
-8.62
-4.43
-1.15
1.41
3.65
5.91
8.31
10.72
12.87
14.46
15.33
15.58
15.49
15.39
15.47
15.77
16.11
16.31
16.23
15.89
15.45
15.05
14.77
14.54
14.20
13.63
12.74
11.57
10.18
8.61
6.84
4.79
2.43
-0.20
-2.95
-5.59
-7.92
-9.91
-11.77
-13.87
-16.61
-20.22
-24.51
-28.91
-32.53
-34.52
-34.37
-32.08
-28.13
-23.26
-18.17
-13.27
-8.73
-4.49
-0.51
3.23
6.67
9.72
12.33
14.54
16.41
18.02
19.44
20.71
21.84
22.77
23.45
23.79
23.77
23.42
22.85
22.20
21.55
20.89
20.11
19.01
17.42
15.25
12.51
9.29
5.74
1.97
-1.89
-5.69
-9.22
-12.30
-14.79
-16.70
-18.16
-19.41
-20.69
-22.16
-23.92
-25.91
-27.97
-29.82
-31.01
-31.00
-29.37
-25.97
-21.10
-15.39
-9.64
-4.52
-0.31
3.07
5.95
8.63
11.24
13.65
15.63
16.99
17.73
18.01
18.09
18.26
18.65
19.25
19.87
20.30
20.30
19.80
18.89
17.76
16.65
15.68
14.82
13.87
12.62
10.92
8.76
6.33
3.84
1.56
-0.40
-2.02
-3.40
-4.69
-6.08
-7.78
-9.98
-12.78
-16.10
-19.66
-22.96
-25.36
-26.28
-25.38
-22.69
-18.63
-13.87
-9.13
-4.92
-1.50
1.17
3.27
5.01
6.55
7.93
9.15
10.20
11.07
11.79
12.42
13.00
13.61
14.26
14.94
15.60
16.10
16.36
16.32
15.99
15.40
14.58
13.52
12.22
10.67
8.98
7.28
5.69
4.22
2.73
1.02
-1.04
-3.36
-5.73
-7.89
-9.70
-11.31
-13.05
-15.28
-18.18
-21.70
-25.48
-28.97
-31.58
-32.82
-32.38
-30.25
-26.67
-22.06
-17.00
-12.05
-7.60
-3.84
-0.74
1.89
4.25
6.45
8.52
10.35
11.84
12.97
13.82
14.53
15.27
16.05
16.78
17.25
17.34
17.04
16.50
15.92
15.43
15.00
14.51
13.82
12.83
11.54
10.05
8.46
6.86
5.27
3.67
2.00
0.23
-1.61
-3.44
-5.17
-6.73
-8.11
-9.46
-11.01
-13.04
-15.69
-18.94
-22.46
-25.72
-28.08
-28.99
-28.14
-25.57
-21.68
-17.10
-12.50
-8.40
-5.02
-2.33
-0.05
2.07
4.25
6.51
8.73
10.75
12.45
13.75
14.68
15.33
15.81
16.21
16.56
16.78
16.80
16.50
15.86
14.88
13.65
12.29
10.90
9.60
8.45
7.52
6.78
6.16
5.45
4.43
2.94
1.03
-1.05
-2.94
-4.28
-4.98
-5.25
-5.57
-6.43
-8.17
-10.79
-13.98
-17.14
-19.61
-20.80
-20.30
-18.03
-14.22
-9.38
-4.14
0.91
5.45
9.46
13.19
16.89
20.63
24.13
26.83
28.16
27.90
26.23
23.76
21.19
19.01
17.34
15.97
14.65
13.23
11.79
10.55
9.63
9.01
8.51
7.92
7.10
6.05
4.81
3.39
1.75
-0.18
-2.47
-5.10
-7.97
-11.00
-14.12
-17.28
-20.44
-23.54
-26.55
-29.42
-32.02
-34.13
-35.40
-35.43
-33.92
-30.83
-26.42
-21.22
-15.81
-10.70
-6.18
-2.38
0.71
3.11
4.89
6.13
6.92
7.37
7.61
7.72
7.78
7.79
7.71
7.51
7.15
6.62
5.98
5.27
4.57
3.86
3.06
2.01
0.50
-1.60
-4.30
-7.44
-10.64
-13.50
-15.67
-17.04
-17.77
-18.24
-18.86
-19.96
-21.66
-23.93
-26.61
-29.42
-31.94
-33.65
-34.05
-32.78
-29.83
-25.57
-20.63
-15.74
-11.44
-8.01
-5.38
-3.33
-1.56
0.15
1.90
3.68
5.39
6.93
8.21
9.22
10.00
10.65
11.25
11.84
12.36
12.76
12.95
12.91
12.63
12.16
11.52
10.72
9.70
8.43
6.86
5.04
3.08
1.12
-0.74
-2.49
-4.18
-5.94
-7.89
-10.10
-12.63
-15.46
-18.53
-21.66
-24.53
-26.66
-27.56
-26.85
-24.47
-20.69
-16.08
-11.31
-6.97
-3.34
-0.44
1.96
4.15
6.34
8.56
10.66
12.44
13.77
14.65
15.23
15.74
16.32
16.99
17.60
17.95
17.90
17.47
16.83
16.22
15.79
15.53
15.25
14.65
13.53
11.81
9.64
7.26
4.92
2.78
0.86
-0.92
-2.65
-4.45
-6.39
-8.55
-11.06
-13.99
-17.30
-20.76
-23.89
-26.09
-26.81
-25.74
-22.93
-18.82
-14.07
-9.34
-5.15
-1.71
1.04
3.30
5.30
7.16
8.85
10.28
11.35
12.07
12.57
13.01
13.52
14.12
14.67
15.01
14.96
14.50
13.70
12.72
11.73
10.88
10.24
9.81
9.47
9.03
8.23
6.85
4.82
2.21
-0.69
-3.56
-6.14
-8.36
-10.32
-12.25
-14.34
-16.69
-19.30
-22.04
-24.73
-27.05
-28.60
-28.93
-27.72
-24.89
-20.70
-15.72
-10.64
-6.09
-2.43
0.32
2.39
4.13
5.84
7.66
9.57
11.43
13.10
14.50
15.62
16.51
17.19
17.66
17.92
18.02
18.13
18.43
19.01
19.73
20.28
20.22
19.23
17.29
14.64
11.75
9.06
6.84
5.14
3.72
2.26
0.37
-2.19
-5.52
-9.45
-13.63
-17.48
-20.41
-21.87
-21.60
-19.68
-16.52
-12.75
-8.97
-5.62
-2.79
-0.34
1.96
4.27
6.50
8.42
9.78
10.49
10.71
10.76
10.98
11.51
12.25
12.90
13.12
12.68
11.57
9.97
8.12
6.28
4.56
3.00
1.53
0.10
-1.38
-2.91
-4.47
-6.01
-7.46
-8.85
-10.25
-11.83
-13.78
-16.31
-19.42
-22.94
-26.47
-29.42
-31.20
-31.38
-29.83
-26.78
-22.72
-18.24
-13.84
-9.79
-6.11
-2.65
0.73
4.10
7.33
10.19
12.48
14.06
15.00
15.49
15.83
16.23
16.74
17.26
17.59
17.51
17.00
16.18
15.32
14.66
14.30
14.14
13.91
13.30
12.09
10.27
8.03
5.67
3.46
1.49
-0.34
-2.30
-4.68
-7.70
-11.40
-15.59
-19.90
-23.83
-26.82
-28.39
-28.21
-26.23
-22.70
-18.09
-13.04
-8.10
-3.62
0.33
3.90
7.28
10.52
13.53
16.07
17.99
19.22
19.94
20.39
20.82
21.33
21.82
22.13
22.09
21.63
20.74
19.55
18.18
16.77
15.42
14.12
12.80
11.32
9.60
7.61
5.43
3.25
1.23
-0.54
-2.14
-3.71
-5.44
-7.50
-9.96
-12.90
-16.30
-20.09
-24.03
-27.68
-30.51
-31.91
-31.48
-29.12
-25.15
-20.20
-15.00
-10.17
-6.01
-2.56
0.38
2.96
5.23
7.14
8.61
9.61
10.27
10.77
11.27
11.80
12.26
12.50
12.42
12.09
11.65
11.24
11.00
10.97
11.09
11.22
11.15
10.69
9.69
8.20
6.33
4.32
2.35
0.50
-1.30
-3.18
-5.31
-7.79
-10.66
-13.85
-17.18
-20.32
-22.82
-24.19
-24.06
-22.30
-19.06
-14.83
-10.17
-5.64
-1.61
1.79
4.60
6.94
8.93
10.65
12.13
13.38
14.42
15.27
15.93
16.39
16.57
16.44
15.98
15.27
14.44
13.67
13.11
12.79
12.63
12.40
11.80
10.61
8.72
6.29
3.56
0.89
-1.45
-3.39
-5.03
-6.59
-8.37
-10.56
-13.25
-16.36
-19.59
-22.43
-24.30
-24.70
-23.43
-20.71
-17.08
-13.20
-9.60
-6.49
-3.77
-1.14
1.62
4.53
7.38
9.83
11.65
12.79
13.40
13.75
14.10
14.55
15.06
15.48
15.62
15.42
14.92
14.25
13.53
12.84
12.13
11.29
10.18
8.67
6.75
4.47
2.02
-0.41
-2.65
-4.59
-6.28
-7.85
-9.48
-11.41
-13.81
-16.77
-20.21
-23.77
-26.93
-29.01
-29.46
-28.02
-24.82
-20.32
-15.18
-10.00
-5.22
-1.06
2.45
5.40
7.93
10.19
12.30
14.33
16.28
18.09
19.68
20.95
21.86
22.39
22.51
22.20
21.47
20.36
19.01
17.57
16.23
15.11
14.20
13.39
12.45
11.18
9.41
7.15
4.55
1.85
-0.69
-2.91
-4.75
-6.37
-8.01
-9.99
-12.49
-15.57
-19.07
-22.65
-25.88
-28.29
-29.45
-29.06
-27.05
-23.61
-19.22
-14.47
-9.90
-5.80
-2.19
1.12
4.28
7.32
10.09
12.38
14.02
15.03
15.56
15.84
16.08
16.36
16.72
17.06
17.27
17.23
16.87
16.15
15.11
13.81
12.32
10.69
8.94
7.15
5.36
3.58
1.83
0.09
-1.65
-3.43
-5.30
-7.27
-9.37
-11.58
-13.87
-16.22
-18.67
-21.26
-23.97
-26.61
-28.77
-29.92
-29.54
-27.43
-23.82
-19.27
-14.44
-9.87
-5.77
-2.03
1.56
5.09
8.44
11.33
13.45
14.71
15.28
15.55
15.92
16.56
17.37
18.03
18.26
17.91
17.07
15.97
14.80
13.59
12.29
10.81
9.13
7.38
5.72
4.26
3.02
1.89
0.73
-0.57
-2.10
-3.93
-6.15
-8.88
-12.20
-16.06
-20.20
-24.13
-27.18
-28.71
-28.25
-25.79
-21.75
-16.92
-12.13
-7.96
-4.62
-1.92
0.45
2.73
4.92
6.83
8.24
9.07
9.48
9.76
10.23
11.05
12.17
13.35
14.29
14.78
14.77
14.36
13.78
13.22
12.68
11.99
10.87
9.06
6.54
3.52
0.41
-2.38
-4.63
-6.36
-7.77
-9.13
-10.65
-12.47
-14.67
-17.26
-20.15
-23.08
-25.59
-27.10
-27.09
-25.33
-21.99
-17.62
-12.94
-8.58
-4.88
-1.80
0.94
3.60
6.25
8.73
10.74
12.04
12.63
12.74
12.74
12.95
13.45
14.09
14.64
14.90
14.84
14.56
14.11
13.49
12.56
11.19
9.31
7.04
4.60
2.22
0.07
-1.76
-3.28
-4.53
-5.54
-6.43
-7.40
-8.65
-10.42
-12.82
-15.82
-19.20
-22.61
-25.55
-27.45
-27.83
-26.44
-23.40
-19.18
-14.45
-9.86
-5.79
-2.31
0.79
3.74
6.64
9.38
11.71
13.41
14.40
14.80
14.90
15.00
15.30
15.78
16.21
16.34
15.94
15.03
13.79
12.47
11.30
10.27
9.25
8.03
6.44
4.50
2.32
0.12
-1.95
-3.84
-5.57
-7.26
-9.01
-10.94
-13.15
-15.69
-18.53
-21.52
-24.28
-26.35
-27.20
-26.47
-24.14
-20.50
-16.12
-11.60
-7.40
-3.71
-0.55
2.15
4.41
6.17
7.38
8.08
8.44
8.73
9.18
9.87
10.73
11.59
12.29
12.73
12.91
12.83
12.52
11.97
11.21
10.24
9.08
7.74
6.23
4.58
2.91
1.37
0.07
-0.98
-1.92
-3.02
-4.56
-6.73
-9.51
-12.65
-15.71
-18.18
-19.57
-19.55
-18.00
-15.12
-11.28
-7.00
-2.75
1.16
4.57
7.46
9.83
11.66
12.91
13.57
13.72
13.53
13.25
13.03
12.94
12.92
12.83
12.60
12.22
11.76
11.27
10.76
10.15
9.31
8.11
6.51
4.60
2.53
0.52
-1.27
-2.74
-3.94
-5.05
-6.40
-8.31
-11.04
-14.60
-18.67
-22.56
-25.47
-26.61
-25.60
-22.54
-18.02
-12.88
-7.93
-3.69
-0.36
2.20
4.21
5.83
7.15
8.19
8.99
9.65
10.32
11.09
11.92
12.65
13.11
13.16
12.85
12.34
11.86
11.52
11.25
10.83
9.96
8.45
6.29
3.73
1.06
-1.40
-3.57
-5.49
-7.39
-9.51
-11.99
-14.93
-18.29
-21.91
-25.44
-28.38
-30.08
-29.99
-27.89
-23.97
-18.85
-13.35
-8.23
-3.92
-0.49
2.30
4.75
7.08
9.31
11.33
12.95
14.04
14.56
14.62
14.35
13.91
13.40
12.87
12.38
11.97
11.65
11.35
10.91
10.12
8.81
6.95
4.71
2.40
0.33
-1.31
-2.56
-3.66
-4.97
-6.82
-9.41
-12.71
-16.47
-20.18
-23.20
-24.89
-24.79
-22.75
-19.05
-14.33
-9.35
-4.74
-0.81
2.53
5.56
8.51
11.41
14.07
16.22
17.66
18.44
18.77
18.94
19.11
19.26
19.28
19.04
18.52
17.88
17.31
16.93
16.66
16.21
15.26
13.61
11.32
8.68
6.08
3.78
1.89
0.24
-1.40
-3.28
-5.59
-8.45
-11.88
-15.72
-19.59
-22.83
-24.71
-24.62
-22.40
-18.40
-13.36
-8.10
-3.22
1.06
4.84
8.32
11.62
14.61
17.10
18.90
20.05
20.79
21.44
22.23
23.18
24.11
24.74
24.87
24.51
23.89
23.37
23.26
23.68
24.47
25.33
25.94
26.08
25.70
24.87
23.76
22.61
21.80
21.72
22.58
24.08
25.30
24.87
21.61
15.04
5.85
-4.37
-13.76
-20.95
-25.52
-27.98
-29.37
-30.67
-32.45
-34.81
-37.54
-40.34
-42.84
-44.75
-45.85
-46.14
-45.81
-45.27
-44.89
-44.88
-45.20
-45.52
-45.43
-44.58
-42.85
-40.48
-37.93
-35.65
-33.79
-32.06
-29.77
-26.09
-20.35
-12.42
-2.88
7.01
15.51
20.79
21.64
18.11
11.92
6.31
5.05
11.03
25.16
46.02
70.56
95.33
117.80
136.77
152.14
164.24
173.32
179.43
182.64
183.12
181.04
176.35
168.61
157.15
141.48
121.72
98.84
74.57
51.06
30.42
14.19
2.94
-3.84
-7.45
-9.47
-11.25
-13.60
-16.90
-21.39
-27.41
-35.39
-45.37
-56.56
-67.29
-75.43
-79.12
-77.54
-71.29
-61.98
-51.63
-41.88
-33.66
-27.17
-22.32
-18.95
-16.84
-15.50
-13.98
-10.99
-5.53
2.47
11.81
20.44
26.42
28.96
28.85
28.10
28.77
31.88
37.00
42.69
47.36
50.17
51.13
50.79
49.53
47.22
43.23
36.96
28.30
17.95
7.24
-2.32
-9.69
-14.55
-17.45
-19.59
-22.42
-27.25
-34.96
-45.69
-58.72
-72.51
-85.05
-94.39
-99.28
-99.51
-95.90
-89.88
-82.85
-75.91
-69.82
-65.12
-62.30
-61.67
-63.00
-65.37
-67.15
-66.73
-63.21
-56.87
-49.15
-41.89
-36.55
-33.64
-32.70
-32.73
-32.85
-32.74
-32.63
-32.98
-33.99
-35.36
-36.17
-35.37
-32.15
-26.41
-18.78
-10.39
-2.51
3.89
8.43
11.46
13.83
16.45
19.81
23.71
27.38
29.75
29.70
26.15
18.00
4.39
-15.03
-39.63
-67.71
-96.93
-125.13
-151.03
-174.41
-195.69
-215.04
-231.83
-244.68
-252.06
-253.24
-248.58
-239.34
-226.74
-211.17
-191.94
-167.88
-138.36
-104.31
-68.48
-34.87
-7.43
11.25
20.77
23.01
21.22
19.25
20.68
28.50
44.80
70.01
102.11
136.22
165.62
183.99
188.19
179.83
164.74
150.33
142.34
142.50
148.50
156.06
161.63
163.96
163.93
162.86
160.92
156.84
148.94
136.81
122.19
108.50
99.35
96.82
100.51
107.92
115.61
120.84
122.51
121.17
118.09
114.14
109.16
102.25
92.60
80.35
67.00
54.99
46.76
44.03
47.28
55.54
66.58
77.29
84.19
84.16
75.17
56.85
30.35
-2.04
-37.65
-74.11
-109.61
-142.95
-173.48
-201.03
-225.76
-247.72
-266.37
-280.45
-288.26
-288.06
-278.40
-258.17
-226.55
-183.45
-130.33
-70.87
-10.70
44.17
89.29
123.08
146.63
162.17
171.80
177.08
179.83
182.89
189.70
202.55
220.50
238.65
249.79
247.57
229.74
199.63
164.96
134.78
115.78
109.83
113.57
119.98
121.24
111.64
89.74
58.54
23.77
-8.98
-36.86
-60.69
-83.74
-109.23
-138.20
-168.77
-196.96
-218.30
-229.13
-227.53
-213.82
-190.83
-163.95
-140.49
-128.06
-132.22
-154.39
-191.11
-235.27
-278.82
-315.76
-343.70
-363.30
-376.41
-383.84
-384.50
-375.91
-355.99
-324.59
-284.02
-237.95
-189.35
-138.94
-85.04
-25.74
38.53
103.23
160.62
202.67
224.50
226.21
212.15
188.36
160.04
130.47
101.71
75.80
55.06
40.91
32.31
25.35
14.83
-2.82
-27.04
-52.95
-73.60
-83.42
-80.69
-68.02
-50.57
-33.50
-20.07
-11.24
-6.35
-4.36
-4.49
-6.32
-9.38
-12.77
-15.03
-14.40
-9.55
-0.30
12.02
24.81
35.14
40.97
41.92
39.51
36.27
34.48
35.20
38.16
42.33
46.77
51.06
55.12
58.67
60.97
61.16
58.73
53.92
47.51
40.33
32.71
24.49
15.42
5.56
-4.50
-13.99
-22.36
-29.64
-36.15
-42.00
-46.74
-49.50
-49.34
-45.92
-39.58
-31.10
-21.28
-10.61
0.56
11.80
22.42
31.50
38.22
42.32
44.17
44.67
44.85
45.28
46.01
46.67
46.97
47.09
47.74
49.85
54.00
60.12
67.35
74.51
80.53
84.82
87.27
88.04
87.19
84.73
80.82
76.06
71.56
68.77
69.01
73.09
81.08
92.14
104.71
116.61
125.48
129.22
126.46
116.87
101.25
81.38
59.64
38.38
19.45
3.91
-8.01
-16.75
-23.16
-28.14
-32.55
-36.97
-41.63
-46.30
-50.37
-53.10
-54.05
-53.48
-52.55
-52.95
-56.09
-62.28
-70.28
-77.69
-81.95
-81.46
-76.21
-67.58
-57.46
-47.36
-37.94
-29.16
-20.88
-13.27
-6.93
-2.52
-0.34
-0.02
-0.63
-1.06
-0.57
0.99
3.17
5.29
6.84
7.75
8.50
9.83
12.39
16.41
21.61
27.26
32.48
36.54
39.08
40.18
40.29
40.01
39.97
40.55
41.87
43.77
45.92
47.97
49.60
50.59
50.75
49.85
47.68
44.08
39.08
33.04
26.61
20.62
15.84
12.69
11.05
10.32
9.55
7.89
4.90
0.74
-3.95
-8.30
-11.60
-13.44
-13.79
-12.99
-11.68
-10.92
-12.02
-16.26
-24.31
-35.74
-48.80
-60.88
-69.35
-72.42
-69.79
-62.40
-51.95
-40.10
-27.99
-16.23
-5.10
5.22
14.54
22.69
29.74
35.98
41.73
47.15
52.03
55.86
58.03
58.06
55.89
51.80
46.23
39.50
31.63
22.27
11.05
-2.07
-16.40
-30.48
-42.31
-49.91
-51.96
-48.09
-38.90
-25.77
-10.41
5.38
19.98
32.08
40.88
46.31
49.05
50.34
51.48
53.25
55.47
57.11
56.72
53.18
46.16
36.21
24.51
12.38
0.88
-9.26
-17.60
-23.85
-27.85
-29.71
-29.91
-29.31
-28.88
-29.30
-30.59
-31.98
-32.12
-29.63
-23.55
-13.78
-1.10
13.01
26.98
39.63
50.51
59.84
68.05
75.28
81.02
84.23
83.72
78.75
69.47
56.84
42.30
27.30
12.97
0.11
-10.57
-18.34
-22.53
-22.90
-19.97
-15.15
-10.41
-7.68
-8.35
-12.82
-20.48
-30.06
-40.07
-49.27
-56.91
-62.76
-66.98
-69.98
-72.21
-74.06
-75.88
-77.87
-80.15
-82.64
-85.02
-86.58
-86.29
-83.12
-76.43
-66.46
-54.44
-42.34
-32.24
-25.68
-23.21
-24.44
-28.36
-33.82
-39.72
-45.09
-48.99
-50.39
-48.37
-42.45
-32.84
-20.54
-7.04
6.03
17.44
26.58
33.54
38.84
43.10
46.83
50.20
53.13
55.37
56.56
56.35
54.43
50.72
45.43
39.22
33.08
28.03
24.84
23.67
24.01
24.92
25.37
24.63
22.56
19.52
16.21
13.34
11.43
10.76
11.34
13.09
15.87
19.57
23.94
28.63
33.16
37.05
39.92
41.59
42.10
41.60
40.28
38.34
35.91
33.07
29.75
25.74
20.69
14.28
6.46
-2.35
-11.12
-18.38
-22.60
-22.68
-18.34
-10.33
-0.21
10.06
18.52
23.81
25.29
23.09
17.92
10.80
2.84
-4.90
-11.51
-16.27
-18.80
-19.24
-18.27
-17.13
-17.23
-19.59
-24.36
-30.53
-36.27
-39.52
-38.82
-33.85
-25.50
-15.47
-5.63
2.63
8.58
12.13
13.52
13.09
11.23
8.46
5.49
3.07
1.67
1.14
0.58
-1.36
-5.99
-13.91
-24.66
-36.67
-47.72
-55.54
-58.41
-55.55
-47.18
-34.40
-18.87
-2.60
12.44
24.57
32.61
36.11
35.41
31.57
26.17
20.96
17.34
15.99
16.61
18.04
18.57
16.62
11.20
2.32
-9.06
-21.28
-32.48
-41.01
-45.80
-46.46
-43.27
-37.06
-29.03
-20.49
-12.53
-5.79
-0.43
3.80
7.28
10.37
13.27
16.00
18.46
20.38
21.35
20.75
17.89
12.24
3.78
-6.80
-18.14
-28.58
-36.65
-41.54
-43.12
-41.76
-37.92
-31.99
-24.27
-15.34
-6.19
1.67
6.60
7.35
3.47
-4.45
-14.86
-25.66
-34.70
-40.29
-41.65
-39.13
-34.07
-28.39
-23.89
-21.75
-22.14
-24.40
-27.29
-29.52
-29.91
-27.67
-22.42
-14.26
-3.87
7.45
18.03
26.24
31.00
32.04
29.97
26.01
21.44
17.26
13.81
10.75
7.18
2.09
-5.19
-14.60
-25.20
-35.41
-43.42
-47.72
-47.52
-42.81
-34.28
-22.97
-10.04
3.43
16.40
27.88
36.95
42.88
45.23
44.09
40.16
34.59
28.62
23.18
18.51
14.15
9.22
2.94
-4.92
-13.89
-22.95
-30.92
-36.76
-39.83
-39.86
-36.95
-31.37
-23.62
-14.34
-4.34
5.46
14.21
21.22
26.14
29.04
30.34
30.73
30.95
31.56
32.78
34.37
35.70
35.86
33.99
29.60
22.84
14.56
6.15
-0.95
-5.53
-6.92
-5.02
-0.15
6.93
14.95
22.12
26.25
25.38
18.49
6.05
-9.93
-26.46
-40.54
-50.06
-54.30
-53.88
-50.24
-45.07
-39.76
-35.27
-32.04
-30.05
-28.97
-28.21
-27.11
-25.02
-21.39
-15.97
-8.84
-0.32
9.04
18.70
28.16
36.92
44.45
50.18
53.60
54.55
53.31
50.55
46.99
43.09
38.81
33.85
28.00
21.57
15.45
10.92
9.20
11.16
17.23
27.28
40.48
55.05
68.29
77.08
78.91
72.87
60.15
43.66
26.77
12.03
0.38
-8.58
-15.81
-21.97
-27.06
-30.81
-33.17
-34.57
-35.64
-36.54
-36.59
-34.36
-28.45
-18.39
-5.19
8.79
20.62
27.84
29.33
25.56
18.36
10.07
2.72
-2.56
-5.74
-7.60
-9.07
-10.71
-12.44
-13.56
-13.13
-10.39
-4.99
3.01
13.28
25.27
38.04
50.02
59.09
63.05
60.54
51.87
39.15
25.53
13.94
5.79
0.56
-3.69
-9.04
-16.58
-25.94
-35.64
-43.93
-49.60
-52.21
-52.04
-49.53
-45.09
-39.04
-31.80
-24.01
-16.52
-10.12
-5.16
-1.39
1.95
5.73
10.39
15.60
20.25
22.88
22.28
18.08
10.96
2.50
-5.32
-10.69
-12.33
-9.70
-2.98
7.14
19.57
33.05
46.25
57.89
66.95
72.91
75.82
76.34
75.44
73.95
72.12
69.52
65.15
58.03
47.77
34.92
21.03
8.20
-1.41
-6.14
-5.12
1.50
12.46
25.31
36.72
43.27
42.49
33.82
18.95
1.27
-15.36
-27.96
-35.30
-37.98
-37.74
-36.60
-36.12
-37.15
-39.83
-43.74
-48.06
-51.58
-52.87
-50.62
-43.91
-32.64
-17.63
-0.85
14.92
26.53
31.31
27.94
17.01
0.97
-16.58
-32.04
-43.00
-48.87
-50.78
-50.86
-51.23
-53.16
-56.71
-60.90
-64.21
-65.21
-63.01
-57.41
-48.79
-37.76
-24.96
-10.92
3.67
17.79
30.06
39.00
43.72
44.31
42.07
38.99
36.93
36.82
38.26
39.73
39.37
35.77
28.68
19.06
8.77
-0.15
-6.11
-8.33
-6.76
-1.69
6.58
17.68
30.77
44.09
55.02
60.79
59.62
51.54
38.50
23.44
9.12
-2.90
-12.41
-20.11
-26.97
-33.70
-40.66
-47.95
-55.35
-62.11
-66.88
-67.96
-63.91
-54.27
-39.97
-23.18
-6.74
6.66
15.10
17.97
15.94
10.74
4.53
-0.76
-4.01
-5.23
-5.41
-6.05
-8.55
-13.78
-21.75
-31.59
-41.68
-49.94
-54.24
-52.92
-45.18
-31.43
-13.28
6.61
25.07
39.01
46.24
46.06
39.54
29.23
18.36
9.71
4.79
3.43
4.18
5.10
4.59
1.87
-2.96
-9.22
-15.96
-22.16
-26.83
-29.07
-28.23
-24.11
-17.04
-8.04
1.37
9.45
14.57
15.70
12.71
6.52
-1.07
-7.97
-12.46
-13.73
-12.06
-8.66
-5.04
-2.57
-1.99
-3.39
-6.28
-9.80
-12.90
-14.50
-13.54
-9.22
-1.20
10.11
23.27
35.95
45.32
48.91
45.57
36.00
22.70
9.12
-1.65
-7.88
-9.76
-8.98
-7.96
-8.88
-13.04
-20.68
-31.00
-42.43
-52.81
-59.75
-61.17
-55.90
-44.12
-27.49
-8.74
9.08
23.41
32.79
37.07
37.22
34.89
31.88
29.60
28.76
29.23
30.13
30.17
28.14
23.34
15.95
6.98
-1.97
-9.27
-13.62
-14.39
-11.58
-5.69
2.47
11.86
21.27
29.41
35.02
37.18
35.58
30.68
23.68
16.20
9.95
6.26
5.73
8.03
12.01
15.92
18.05
17.19
13.13
6.63
-0.76
-7.31
-11.61
-12.97
-11.45
-7.68
-2.55
3.03
8.32
12.88
16.47
19.15
21.20
23.02
24.99
27.29
29.81
32.13
33.69
33.99
32.79
30.19
26.71
23.15
20.37
19.15
19.98
22.94
27.79
34.14
41.51
49.47
57.52
65.00
71.09
75.05
76.58
76.04
74.46
73.14
73.01
74.16
75.74
76.35
74.66
69.93
62.24
52.21
40.64
28.24
15.51
2.88
-9.21
-20.22
-29.78
-37.75
-44.36
-50.08
-55.42
-60.67
-65.83
-70.67
-74.86
-78.20
-80.62
-82.19
-83.00
-82.97
-81.79
-79.00
-74.22
-67.40
-58.91
-49.55
-40.24
-31.78
-24.67
-19.10
-15.03
-12.44
-11.38
-11.84
-13.70
-16.64
-20.07
-23.32
-25.80
-27.19
-27.53
-27.15
-26.53
-26.03
-25.91
-26.26
-27.10
-28.50
-30.49
-33.06
-35.99
-38.89
-41.30
-42.84
-43.42
-43.29
-42.91
-42.70
-42.88
-43.27
-43.36
-42.49
-40.14
-36.17
-30.89
-24.99
-19.22
-14.17
-10.07
-6.79
-4.07
-1.69
0.40
2.16
3.50
4.50
5.33
6.21
7.27
8.43
9.44
10.00
9.93
9.21
8.04
6.65
5.23
3.86
2.52
1.17
-0.17
-1.44
-2.66
-3.88
-5.26
-7.00
-9.21
-11.88
-14.85
-17.81
-20.36
-22.09
-22.58
-21.54
-18.90
-14.95
-10.29
-5.59
-1.41
2.03
4.81
7.21
9.42
11.42
12.97
13.84
14.03
13.82
13.66
13.98
14.90
16.19
17.38
18.07
18.06
17.46
16.57
15.64
14.71
13.60
12.01
9.74
6.87
3.71
0.74
-1.62
-3.22
-4.14
-4.70
-5.30
-6.33
-8.00
-10.36
-13.15
-15.89
-17.94
-18.59
-17.40
-14.27
-9.57
-4.04
1.47
6.27
9.99
12.66
14.48
15.69
16.39
16.62
16.34
15.66
14.82
14.15
13.94
14.31
15.17
16.21
17.09
17.52
17.47
17.07
16.60
16.30
16.23
16.28
16.19
15.76
14.91
13.78
12.56
11.35
10.08
8.50
6.35
3.47
0.02
-3.64
-6.95
-9.36
-10.46
-10.08
-8.21
-4.98
-0.61
4.65
10.40
16.21
21.60
26.25
30.04
33.12
35.68
37.78
39.14
39.23
37.51
33.85
28.70
22.95
17.50
12.83
8.68
4.37
-0.84
-7.18
-14.14
-20.71
-25.88
-29.10
-30.61
-31.20
-31.80
-33.07
-35.09
-37.49
-39.64
-41.06
-41.60
-41.45
-41.02
-40.68
-40.62
-40.79
-40.97
-40.86
-40.18
-38.70
-36.30
-32.93
-28.64
-23.58
-18.00
-12.17
-6.41
-0.99
3.84
7.83
10.81
12.69
13.50
13.47
12.91
12.21
11.69
11.58
11.92
12.67
13.66
14.65
15.38
15.58
15.08
13.80
11.80
9.23
6.27
3.08
-0.27
-3.68
-7.05
-10.11
-12.58
-14.20
-14.90
-14.87
-14.54
-14.39
-14.80
-15.93
-17.70
-19.83
-21.95
-23.64
-24.45
-23.99
-22.01
-18.43
-13.52
-7.79
-1.96
3.27
7.35
10.00
11.20
11.21
10.41
9.27
8.22
7.53
7.30
7.44
7.73
8.01
8.18
8.30
8.49
8.84
9.28
9.60
9.46
8.50
6.52
3.49
-0.42
-4.94
-9.74
-14.51
-18.97
-22.85
-25.92
-28.14
-29.68
-30.95
-32.51
-34.77
-37.73
-40.86
-43.17
-43.49
-40.98
-35.39
-27.22
-17.53
-7.58
1.53
9.11
14.92
19.09
21.96
23.97
25.55
27.09
28.95
31.32
34.25
37.60
41.09
44.36
47.09
49.03
50.14
50.63
50.88
51.38
52.57
54.60
57.34
60.35
63.07
64.92
65.43
64.26
61.13
55.89
48.64
39.85
30.42
21.53
14.20
8.99
5.66
3.27
0.47
-4.04
-11.09
-20.73
-32.24
-44.25
-55.14
-63.49
-68.45
-69.97
-68.78
-65.97
-62.62
-59.44
-56.70
-54.30
-52.01
-49.58
-46.76
-43.30
-38.96
-33.59
-27.29
-20.40
-13.38
-6.70
-0.72
4.41
8.66
12.08
14.85
17.26
19.67
22.46
25.92
30.07
34.70
39.39
43.64
46.90
48.58
48.14
45.18
39.64
31.95
22.95
13.68
5.09
-2.28
-8.34
-13.33
-17.52
-21.10
-24.07
-26.37
-27.97
-28.90
-29.14
-28.44
-26.39
-22.48
-16.42
-8.30
1.27
11.26
20.40
27.40
31.20
31.11
27.02
19.48
9.67
-0.86
-10.70
-19.05
-25.88
-31.72
-37.01
-41.62
-44.70
-45.12
-42.16
-36.09
-28.18
-20.18
-13.46
-8.39
-4.26
0.26
6.37
14.62
24.75
35.93
47.13
57.39
65.89
71.83
74.42
72.89
66.73
56.07
41.84
25.74
9.71
-4.62
-16.51
-26.12
-34.19
-41.41
-47.90
-53.12
-56.23
-56.66
-54.46
-50.38
-45.42
-40.24
-34.90
-28.87
-21.49
-12.46
-2.12
8.58
18.45
26.48
32.12
35.36
36.57
36.18
34.47
31.36
26.62
20.11
12.03
3.07
-5.85
-13.83
-20.48
-25.98
-30.93
-35.92
-41.14
-46.20
-50.31
-52.57
-52.35
-49.40
-43.75
-35.59
-25.16
-12.89
0.50
13.89
26.01
35.78
42.65
46.80
48.72
48.85
47.07
42.80
35.46
25.07
12.60
-0.24
-11.73
-20.86
-27.65
-32.89
-37.37
-41.26
-43.92
-44.35
-41.90
-36.79
-30.10
-23.33
-17.65
-13.54
-10.74
-8.64
-6.74
-4.98
-3.65
-3.08
-3.28
-3.82
-4.00
-3.13
-0.98
2.10
5.23
7.45
8.10
7.11
5.07
2.90
1.46
1.17
1.95
3.37
4.92
6.31
7.55
8.81
10.29
12.00
13.84
15.66
17.33
18.79
19.94
20.57
20.34
18.94
16.24
12.43
7.97
3.45
-0.56
-3.65
-5.59
-6.28
-5.61
-3.45
0.37
5.99
13.35
22.03
31.10
39.16
44.56
45.92
42.65
35.43
26.10
17.11
10.69
7.93
8.54
11.10
13.90
15.74
16.43
16.60
17.09
18.29
19.91
21.16
21.27
20.05
18.06
16.34
16.00
17.69
21.49
26.90
33.07
38.93
43.37
45.29
43.87
38.77
30.29
19.48
7.89
-2.77
-11.11
-16.42
-18.84
-19.27
-19.01
-19.37
-21.21
-24.76
-29.53
-34.48
-38.31
-39.81
-38.11
-32.92
-24.51
-13.59
-1.11
11.91
24.34
35.01
42.73
46.58
46.24
42.23
35.83
28.64
21.98
16.43
11.77
7.33
2.58
-2.57
-7.65
-11.96
-14.87
-16.10
-15.68
-13.81
-10.64
-6.21
-0.55
6.15
13.32
19.94
24.68
26.31
24.12
18.23
9.56
-0.43
-10.24
-18.82
-25.76
-31.24
-35.71
-39.50
-42.66
-44.88
-45.65
-44.44
-40.88
-34.79
-26.23
-15.44
-2.93
10.47
23.54
34.78
42.71
46.36
45.63
41.39
35.30
29.31
25.01
23.13
23.32
24.39
24.87
23.49
19.65
13.50
5.78
-2.52
-10.36
-16.89
-21.42
-23.47
-22.77
-19.36
-13.70
-6.72
0.29
5.93
9.00
8.91
5.82
0.56
-5.73
-12.04
-17.81
-22.94
-27.50
-31.45
-34.42
-35.94
-35.73
-33.98
-31.39
-28.74
-26.47
-24.38
-21.68
-17.46
-11.17
-2.97
6.36
15.80
24.56
32.25
38.78
44.08
47.83
49.52
48.74
45.52
40.26
33.52
25.51
15.94
4.32
-9.41
-24.38
-38.70
-50.06
-56.65
-57.84
-54.30
-47.51
-38.99
-29.77
-20.23
-10.41
-0.43
9.24
17.69
23.81
26.54
25.31
20.21
12.20
2.89
-5.98
-13.05
-17.82
-20.66
-22.45
-24.01
-25.68
-27.28
-28.36
-28.56
-27.87
-26.43
-24.38
-21.60
-17.76
-12.55
-5.97
1.52
9.09
15.76
20.66
23.34
23.84
22.69
20.57
18.04
15.27
12.06
7.99
2.88
-3.05
-9.10
-14.39
-18.20
-20.24
-20.63
-19.72
-17.89
-15.40
-12.43
-9.19
-5.99
-3.19
-1.11
0.11
0.49
0.24
-0.37
-1.10
-1.81
-2.39
-2.84
-3.08
-3.07
-2.82
-2.35
-1.72
-0.89
0.31
2.23
5.28
9.70
15.39
21.78
28.11
33.57
37.68
40.35
41.89
42.75
43.43
44.39
46.05
48.81
52.95
58.44
64.85
71.42
77.38
82.36
86.69
91.33
97.47
105.96
116.76
128.81
140.26
149.10
153.82
153.89
149.98
143.68
136.96
131.50
128.11
126.39
124.82
121.14
112.99
98.68
77.66
50.84
20.38
-10.78
-39.72
-64.08
-82.53
-94.81
-101.52
-103.81
-103.11
-100.84
-98.29
-96.51
-96.15
-97.38
-99.86
-102.84
-105.48
-107.05
-107.27
-106.26
-104.46
-102.37
-100.35
-98.47
-96.63
-94.58
-92.15
-89.30
-86.16
-83.03
-80.25
-78.12
-76.76
-76.06
-75.67
-75.17
-74.15
-72.37
-69.77
-66.34
-62.09
-57.00
-51.12
-44.62
-37.89
-31.41
-25.64
-20.86
-17.10
-14.15
-11.69
-9.46
-7.30
-5.18
-3.15
-1.27
0.46
2.07
3.59
5.02
6.33
7.47
8.41
9.20
9.95
10.73
11.60
12.55
13.45
14.16
14.56
14.59
14.26
13.60
12.61
11.25
9.42
7.05
4.20
1.08
-2.06
-5.03
-7.70
-10.03
-11.96
-13.25
-13.61
-12.71
-10.50
-7.22
-3.46
0.11
2.96
4.83
5.84
6.24
6.33
6.23
5.95
5.41
4.57
3.46
2.26
1.18
0.43
0.09
0.12
0.34
0.48
0.23
-0.65
-2.18
-4.19
-6.35
-8.38
-10.09
-11.51
-12.76
-13.97
-15.10
-16.06
-16.68
-16.95
-16.97
-16.99
-17.24
-17.85
-18.83
-20.11
-21.63
-23.32
-25.07
-26.65
-27.73
-27.91
-26.96
-24.82
-21.70
-18.00
-14.09
-10.26
-6.62
-3.20
-0.04
2.76
5.09
6.88
8.17
9.11
9.87
10.62
11.40
12.21
13.05
13.88
14.65
15.25
15.54
15.36
14.67
13.55
12.20
10.87
9.72
8.77
7.91
7.02
5.98
4.72
3.22
1.51
-0.34
-2.25
-4.08
-5.71
-7.05
-8.14
-9.12
-10.24
-11.77
-13.92
-16.70
-19.85
-22.87
-25.10
-25.92
-25.01
-22.47
-18.79
-14.68
-10.72
-7.26
-4.32
-1.77
0.54
2.67
4.54
6.03
7.08
7.68
7.96
8.07
8.11
8.15
8.16
8.07
7.79
7.27
6.55
5.71
4.85
4.03
3.19
2.21
0.97
-0.56
-2.25
-3.86
-5.13
-5.88
-6.12
-6.06
-5.92
-5.93
-6.22
-6.81
-7.74
-9.07
-10.87
-13.17
-15.86
-18.65
-21.23
-23.24
-24.42
-24.56
-23.53
-21.27
-17.89
-13.73
-9.34
-5.23
-1.76
1.08
3.56
6.09
8.88
11.91
14.87
17.41
19.34
20.76
22.00
23.42
25.26
27.51
29.98
32.42
34.65
36.61
38.33
39.82
41.06
42.06
42.85
43.63
44.65
46.12
48.05
50.27
52.43
54.19
55.23
55.34
54.35
52.16
48.79
44.39
39.29
33.90
28.55
23.35
18.12
12.67
6.96
1.40
-3.30
-6.33
-7.29
-6.35
-4.20
-1.67
0.70
2.78
4.71
6.57
8.03
8.47
7.35
4.67
1.15
-2.01
-3.78
-3.74
-2.26
-0.21
1.58
2.70
3.26
3.57
3.79
3.73
2.96
1.09
-1.82
-5.38
-8.92
-11.94
-14.30
-16.35
-18.64
-21.77
-26.08
-31.59
-37.99
-44.69
-50.96
-55.94
-58.84
-59.14
-56.72
-52.06
-46.10
-40.07
-35.10
-31.94
-30.69
-30.86
-31.53
-31.72
-30.66
-28.04
-23.99
-18.96
-13.52
-8.14
-3.12
1.36
5.14
8.02
9.79
10.35
9.79
8.51
7.16
6.39
6.66
7.99
9.86
11.43
11.81
10.48
7.48
3.45
-0.67
-3.94
-5.75
-5.96
-4.91
-3.27
-1.80
-1.23
-1.95
-4.05
-7.15
-10.59
-13.58
-15.46
-15.91
-15.14
-13.81
-12.85
-13.22
-15.52
-19.74
-25.24
-30.82
-35.22
-37.50
-37.44
-35.53
-32.74
-30.01
-27.87
-26.31
-24.85
-22.99
-20.53
-17.78
-15.39
-13.99
-13.80
-14.44
-15.09
-14.96
-13.63
-11.36
-8.88
-6.99
-6.16
-6.31
-6.96
-7.53
-7.66
-7.49
-7.41
-7.94
-9.36
-11.66
-14.55
-17.67
-20.79
-23.84
-26.90
-30.06
-33.33
-36.64
-39.91
-43.11
-46.30
-49.56
-52.81
-55.76
-57.89
-58.62
-57.55
-54.54
-49.78
-43.60
-36.36
-28.24
-19.28
-9.46
1.13
12.14
23.02
33.10
41.85
49.04
54.76
59.38
63.24
66.56
69.23
71.00
71.54
70.69
68.55
65.46
61.76
57.66
53.13
47.97
42.03
35.39
28.45
21.72
15.65
10.33
5.47
0.52
-5.04
-11.46
-18.63
-26.15
-33.53
-40.28
-45.91
-49.88
-51.55
-50.33
-45.96
-38.71
-29.42
-19.43
-10.15
-2.69
2.39
5.20
6.35
6.74
7.23
8.46
10.71
14.00
18.11
22.75
27.60
32.30
36.44
39.56
41.25
41.27
39.63
36.70
32.95
28.80
24.46
19.91
15.08
10.04
5.02
0.29
-4.04
-8.25
-12.89
-18.53
-25.28
-32.62
-39.31
-43.89
-45.11
-42.42
-36.15
-27.31
-17.24
-7.24
1.79
9.38
15.47
20.24
23.97
26.87
29.05
30.51
31.22
31.22
30.64
29.69
28.51
27.08
25.26
22.83
19.69
16.01
12.22
8.88
6.44
5.14
4.94
5.64
7.04
9.03
11.55
14.42
17.25
19.38
20.09
18.78
15.32
10.10
4.05
-1.73
-6.27
-9.06
-10.18
-10.16
-9.75
-9.60
-10.07
-11.08
-12.18
-12.75
-12.20
-10.19
-6.74
-2.15
3.14
8.70
14.34
19.99
25.64
31.10
35.96
39.70
41.80
42.01
40.34
36.98
32.20
26.32
19.70
12.79
6.10
0.06
-5.12
-9.49
-13.34
-17.05
-20.92
-25.09
-29.45
-33.58
-36.79
-38.13
-36.63
-31.63
-23.04
-11.59
1.30
13.83
24.18
30.92
33.25
31.20
25.67
18.38
11.36
6.46
4.69
5.90
8.87
11.91
13.53
13.03
10.56
6.93
3.09
-0.24
-2.66
-4.07
-4.47
-3.87
-2.31
0.08
3.01
6.08
8.79
10.65
11.26
10.24
7.43
2.85
-3.11
-9.62
-15.50
-19.35
-19.98
-16.79
-10.01
-0.67
9.51
18.63
24.94
27.30
25.33
19.51
11.15
2.12
-5.51
-10.07
-10.71
-7.73
-2.42
3.44
8.19
10.83
11.24
9.95
7.75
5.41
3.47
2.28
2.14
3.26
5.69
9.17
13.01
16.25
17.93
17.38
14.50
9.82
4.32
-0.79
-4.45
-5.99
-5.27
-2.60
1.42
6.24
11.40
16.67
21.77
26.35
29.89
31.90
32.16
30.86
28.66
26.39
24.79
24.27
24.85
26.26
28.18
30.33
32.45
34.35
35.80
36.63
36.81
36.43
35.75
35.01
34.36
33.76
33.05
32.09
30.79
29.07
26.71
23.39
18.68
12.22
3.95
-5.83
-16.52
-27.28
-37.15
-45.09
-50.07
-51.30
-48.47
-41.96
-32.83
-22.52
-12.36
-3.26
4.59
11.45
17.75
23.82
29.72
35.35
40.56
45.33
49.69
53.65
56.96
59.03
58.97
55.91
49.37
39.61
27.67
15.12
3.52
-5.98
-12.93
-17.49
-20.16
-21.45
-21.79
-21.44
-20.60
-19.38
-17.79
-15.74
-13.07
-9.68
-5.65
-1.26
3.05
6.82
9.65
11.29
11.55
10.39
7.86
4.15
-0.40
-5.34
-10.26
-14.78
-18.56
-21.27
-22.60
-22.35
-20.59
-17.77
-14.64
-11.96
-10.20
-9.28
-8.66
-7.54
-5.26
-1.55
3.42
9.22
15.35
21.41
27.04
31.79
35.10
36.32
34.85
30.44
23.27
13.99
3.64
-6.61
-15.72
-22.96
-27.99
-30.89
-32.02
-31.85
-30.89
-29.55
-28.11
-26.72
-25.43
-24.18
-22.82
-21.11
-18.66
-15.09
-10.08
-3.69
3.53
10.44
15.60
17.65
15.91
10.60
2.83
-5.88
-14.08
-20.85
-25.83
-29.03
-30.64
-30.73
-29.36
-26.65
-22.95
-18.73
-14.53
-10.63
-7.01
-3.38
0.67
5.41
10.82
16.52
21.85
25.95
28.04
27.64
24.77
20.09
14.76
10.12
7.28
6.70
8.02
10.19
11.92
12.13
10.29
6.61
1.88
-2.81
-6.36
-7.98
-7.26
-4.17
0.98
7.78
15.73
24.29
32.80
40.43
46.14
48.99
48.38
44.29
37.34
28.67
19.54
11.08
4.11
-0.89
-3.72
-4.46
-3.51
-1.55
0.51
1.81
1.80
0.40
-1.93
-4.39
-6.10
-6.45
-5.17
-2.43
1.22
5.08
8.42
10.59
11.08
9.56
5.95
0.47
-6.30
-13.50
-20.14
-25.40
-28.81
-30.34
-30.24
-28.89
-26.66
-23.84
-20.71
-17.53
-14.51
-11.69
-8.87
-5.62
-1.52
3.77
10.28
17.79
25.95
34.34
42.62
50.54
57.88
64.47
70.21
75.07
79.14
82.69
86.18
90.17
95.27
101.87
109.99
119.26
128.93
138.17
146.35
153.22
158.92
163.87
168.52
172.88
176.29
177.34
174.08
164.61
147.66
123.23
92.75
58.96
25.29
-4.87
-28.99
-45.89
-55.94
-60.94
-63.54
-66.48
-71.70
-79.76
-89.74
-99.69
-107.40
-111.29
-110.91
-106.92
-100.77
-94.24
-89.05
-86.60
-87.74
-92.66
-100.69
-110.44
-120.15
-128.26
-133.88
-137.03
-138.37
-138.70
-138.48
-137.68
-135.94
-133.04
-129.16
-124.94
-121.14
-118.29
-116.38
-114.89
-113.00
-109.98
-105.44
-99.44
-92.32
-84.55
-76.49
-68.37
-60.37
-52.72
-45.75
-39.76
-34.89
-31.05
-27.87
-24.88
-21.65
-17.99
-13.93
-9.70
-5.63
-2.05
0.81
2.83
4.06
4.62
4.75
4.56
4.09
3.28
2.07
0.54
-1.03
-2.22
-2.66
-2.20
-1.03
0.42
1.61
2.09
1.58
0.00
-2.58
-5.94
-9.64
-13.12
-15.70
-16.81
-16.18
-13.89
-10.37
-6.20
-1.94
2.01
5.40
8.05
9.90
10.93
11.22
11.01
10.59
10.19
9.89
9.66
9.33
8.82
8.13
7.43
6.92
6.79
7.10
7.72
8.41
8.88
8.90
8.37
7.38
6.19
5.05
4.17
3.60
3.22
2.80
2.11
1.00
-0.58
-2.52
-4.59
-6.46
-7.78
-8.19
-7.53
-5.84
-3.41
-0.68
1.86
3.86
5.20
5.98
6.44
6.82
7.23
7.65
7.94
8.00
7.83
7.56
7.34
7.27
7.32
7.38
7.36
7.23
7.09
7.03
7.03
6.93
6.49
5.52
3.99
2.12
0.21
-1.41
-2.60
-3.41
-4.05
-4.84
-6.04
-7.77
-9.93
-12.22
-14.13
-15.15
-14.91
-13.25
-10.33
-6.53
-2.36
1.72
5.34
8.27
10.42
11.75
12.29
12.10
11.33
10.21
9.02
8.09
7.60
7.59
7.85
8.08
8.02
7.54
6.72
5.77
4.91
4.22
3.68
3.12
2.42
1.56
0.64
-0.20
-0.82
-1.22
-1.52
-1.87
-2.44
-3.30
-4.45
-5.85
-7.44
-9.11
-10.68
-11.84
-12.17
-11.35
-9.29
-6.25
-2.78
0.47
3.07
4.87
6.05
6.88
7.60
8.29
8.94
9.50
10.02
10.55
11.17
11.84
12.41
12.71
12.61
12.09
11.27
10.35
9.50
8.82
8.28
7.80
7.25
6.53
5.63
4.54
3.33
2.09
0.89
-0.27
-1.42
-2.66
-4.10
-5.83
-7.87
-10.11
-12.28
-14.03
-14.98
-14.78
-13.31
-10.67
-7.19
-3.36
0.27
3.30
5.45
6.69
7.17
7.12
6.85
6.59
6.51
6.68
7.07
7.59
8.11
8.54
8.81
8.88
8.77
8.54
8.28
8.08
7.92
7.68
7.19
6.28
4.90
3.18
1.39
-0.16
-1.28
-1.96
-2.39
-2.85
-3.58
-4.70
-6.15
-7.73
-9.21
-10.33
-10.93
-10.90
-10.19
-8.85
-6.96
-4.70
-2.33
-0.12
1.69
3.01
3.83
4.27
4.47
4.54
4.54
4.49
4.44
4.44
4.56
4.82
5.18
5.56
5.86
6.01
5.99
5.79
5.44
4.93
4.22
3.25
2.02
0.55
-1.00
-2.45
-3.63
-4.42
-4.86
-5.07
-5.31
-5.79
-6.64
-7.83
-9.17
-10.36
-11.09
-11.12
-10.35
-8.83
-6.74
-4.37
-2.00
0.13
1.87
3.18
4.07
4.62
4.88
4.94
4.89
4.87
5.01
5.36
5.95
6.66
7.36
7.95
8.35
8.53
8.46
8.09
7.40
6.42
5.26
4.06
2.98
2.07
1.32
0.63
-0.10
-0.97
-2.01
-3.26
-4.70
-6.27
-7.84
-9.18
-10.06
-10.26
-9.69
-8.44
-6.71
-4.73
-2.74
-0.85
0.87
2.38
3.60
4.45
4.88
4.90
4.66
4.39
4.32
4.53
4.96
5.41
5.66
5.61
5.26
4.77
4.31
4.00
3.81
3.62
3.23
2.47
1.30
-0.20
-1.86
-3.46
-4.83
-5.90
-6.73
-7.47
-8.32
-9.40
-10.76
-12.28
-13.76
-14.87
-15.30
-14.78
-13.21
-10.71
-7.60
-4.37
-1.45
0.87
2.52
3.66
4.54
5.36
6.20
6.98
7.60
7.95
8.09
8.15
8.28
8.54
8.83
8.96
8.78
8.25
7.52
6.77
6.15
5.64
5.08
4.26
3.10
1.67
0.22
-1.00
-1.83
-2.26
-2.47
-2.71
-3.21
-4.15
-5.62
-7.57
-9.83
-12.05
-13.77
-14.55
-14.07
-12.32
-9.56
-6.31
-3.10
-0.32
1.91
3.68
5.14
6.41
7.51
8.36
8.94
9.28
9.49
9.69
9.93
10.18
10.36
10.43
10.38
10.25
10.02
9.64
9.03
8.15
7.07
5.95
4.97
4.17
3.53
2.89
2.15
1.28
0.35
-0.55
-1.37
-2.18
-3.12
-4.30
-5.76
-7.50
-9.45
-11.49
-13.40
-14.87
-15.52
-14.99
-13.17
-10.26
-6.72
-3.10
0.17
2.87
5.01
6.70
8.06
9.13
9.87
10.30
10.50
10.60
10.74
10.96
11.22
11.40
11.34
10.89
10.03
8.89
7.68
6.64
5.93
5.59
5.52
5.54
5.49
5.27
4.83
4.21
3.48
2.76
2.15
1.66
1.26
0.79
0.08
-0.96
-2.33
-3.85
-5.17
-5.88
-5.61
-4.12
-1.44
2.18
6.29
10.45
14.28
17.57
20.27
22.41
24.05
25.25
26.18
27.10
28.37
30.40
33.49
37.66
42.73
48.26
53.70
58.58
62.63
65.89
68.71
71.62
75.17
79.72
85.33
91.71
98.31
104.58
110.14
114.96
119.40
124.15
129.92
137.15
145.71
154.76
162.87
168.39
169.91
166.58
158.37
146.03
130.85
114.34
97.84
82.18
67.56
53.59
39.56
24.80
8.95
-7.94
-25.53
-43.40
-61.17
-78.48
-94.77
-109.14
-120.43
-127.60
-130.21
-128.71
-124.42
-118.98
-113.82
-109.57
-106.18
-103.17
-100.31
-97.88
-96.62
-97.17
-99.51
-102.72
-105.25
-105.75
-103.74
-99.78
-95.11
-90.80
-87.27
-84.13
-80.71
-76.64
-72.21
-68.20
-65.36
-63.90
-63.43
-63.22
-62.65
-61.53
-60.07
-58.59
-57.19
-55.67
-53.71
-51.13
-48.08
-44.97
-42.27
-40.21
-38.70
-37.40
-35.99
-34.39
-32.76
-31.36
-30.33
-29.47
-28.36
-26.62
-24.10
-21.10
-18.21
-16.06
-15.02
-15.05
-15.74
-16.45
-16.62
-15.82
-13.89
-10.89
-7.06
-2.77
1.54
5.49
8.86
11.66
14.08
16.44
18.95
21.66
24.37
26.71
28.31
28.90
28.50
27.43
26.21
25.49
25.79
27.47
30.65
35.28
41.23
48.31
56.26
64.62
72.63
79.39
84.03
86.00
85.27
82.28
77.62
71.81
65.05
57.35
48.78
39.67
30.61
22.23
14.74
7.74
0.32
-8.52
-19.26
-31.55
-44.29
-56.11
-65.87
-73.12
-78.09
-81.35
-83.45
-84.73
-85.20
-84.71
-83.08
-80.17
-75.89
-70.24
-63.39
-55.69
-47.73
-40.16
-33.56
-28.18
-23.96
-20.58
-17.68
-15.00
-12.44
-9.97
-7.58
-5.26
-3.02
-0.92
0.88
2.14
2.63
2.21
0.83
-1.41
-4.25
-7.32
-10.09
-11.96
-12.41
-11.15
-8.22
-4.02
0.83
5.65
9.88
13.07
14.89
15.17
13.88
11.22
7.68
3.91
0.58
-1.97
-3.87
-5.60
-7.75
-10.64
-14.01
-17.16
-19.23
-19.68
-18.59
-16.62
-14.60
-13.08
-12.04
-10.94
-9.13
-6.26
-2.58
1.17
4.09
5.52
5.27
3.69
1.51
-0.31
-0.84
0.65
4.46
10.34
17.49
24.81
31.14
35.73
38.31
39.13
38.61
37.22
35.25
32.97
30.78
29.29
29.29
31.48
36.14
42.95
50.95
58.68
64.41
66.47
63.57
55.22
42.05
25.84
9.20
-5.30
-16.00
-22.76
-26.91
-30.46
-35.07
-41.30
-48.55
-55.61
-61.48
-65.90
-69.18
-71.66
-73.16
-72.80
-69.46
-62.47
-52.14
-39.75
-27.08
-15.69
-6.45
0.48
5.32
8.31
9.56
9.24
7.73
5.75
4.13
3.47
3.89
4.96
5.92
6.02
4.78
2.10
-1.70
-5.95
-9.83
-12.46
-13.19
-11.73
-8.28
-3.48
1.78
6.56
10.00
11.47
10.66
7.74
3.44
-1.04
-4.31
-5.26
-3.44
0.72
6.06
11.15
14.73
16.15
15.36
12.80
9.06
4.71
0.24
-3.94
-7.30
-9.30
-9.46
-7.61
-3.99
0.74
5.67
9.84
12.48
13.13
11.73
8.66
4.65
0.64
-2.47
-4.14
-4.36
-3.70
-3.03
-3.19
-4.61
-7.15
-10.20
-12.94
-14.67
-14.99
-13.82
-11.22
-7.30
-2.14
4.18
11.41
18.99
26.12
31.83
35.21
35.72
33.30
28.56
22.64
16.95
12.72
10.56
10.25
10.91
11.40
10.82
8.89
5.92
2.57
-0.53
-3.10
-5.10
-6.55
-7.31
-7.09
-5.58
-2.78
0.86
4.43
6.85
7.25
5.26
1.24
-3.82
-8.56
-11.60
-11.94
-9.16
-3.58
3.83
11.76
18.87
24.10
26.95
27.43
26.02
23.47
20.56
17.98
16.25
15.73
16.64
19.03
22.70
27.08
31.25
33.99
34.11
30.77
23.87
14.22
3.37
-6.75
-14.44
-18.75
-19.69
-18.21
-15.74
-13.60
-12.60
-12.83
-13.83
-14.87
-15.31
-14.80
-13.18
-10.43
-6.49
-1.29
5.21
12.84
21.10
29.19
36.11
40.85
42.67
41.29
37.06
30.94
24.31
18.63
14.99
13.82
14.77
16.87
18.91
19.79
18.84
15.90
11.30
5.70
0.04
-4.65
-7.36
-7.30
-4.15
1.88
9.94
18.68
26.40
31.29
31.81
27.07
17.32
3.99
-10.45
-23.22
-32.08
-36.04
-35.56
-32.22
-27.90
-24.06
-21.39
-19.83
-19.07
-18.83
-18.99
-19.40
-19.68
-19.08
-16.69
-11.87
-4.58
4.46
13.95
22.32
28.09
30.16
28.04
22.00
13.06
2.96
-6.28
-12.89
-15.89
-15.50
-12.89
-9.78
-7.76
-7.82
-10.13
-14.21
-19.19
-24.03
-27.70
-29.31
-28.17
-23.93
-16.69
-7.13
3.52
13.63
21.48
25.69
25.57
21.44
14.64
7.18
1.12
-2.12
-2.17
0.25
3.71
6.71
8.22
7.87
5.89
2.84
-0.68
-4.13
-7.02
-8.83
-9.08
-7.42
-3.83
1.38
7.48
13.48
18.17
20.29
18.82
13.30
4.21
-6.96
-18.01
-26.60
-31.08
-30.97
-27.13
-21.26
-15.23
-10.47
-7.63
-6.59
-6.83
-7.70
-8.61
-9.16
-8.98
-7.78
-5.35
-1.67
2.96
7.98
12.62
16.10
17.84
17.59
15.52
12.20
8.52
5.42
3.64
3.45
4.54
6.12
7.21
6.98
4.98
1.31
-3.57
-8.92
-13.92
-17.87
-20.21
-20.66
-19.25
-16.26
-12.22
-7.74
-3.47
0.09
2.60
4.02
4.59
4.83
5.34
6.68
9.13
12.60
16.64
20.61
23.83
25.78
26.21
25.16
22.91
19.91
16.61
13.43
10.71
8.76
7.80
8.02
9.41
11.80
14.80
17.80
20.07
20.91
19.73
16.29
10.78
3.88
-3.34
-9.63
-13.93
-15.62
-14.79
-12.20
-8.98
-6.34
-5.14
-5.72
-7.82
-10.67
-13.25
-14.55
-13.87
-10.89
-5.76
1.00
8.57
15.89
21.76
25.01
24.71
20.57
13.19
4.07
-4.75
-11.31
-14.50
-14.42
-12.26
-9.72
-8.24
-8.51
-10.33
-12.98
-15.66
-17.82
-19.24
-19.76
-19.14
-17.01
-13.02
-7.17
0.01
7.42
13.72
17.70
18.75
17.08
13.62
9.71
6.58
4.90
4.67
5.28
5.87
5.68
4.26
1.58
-2.10
-6.33
-10.56
-14.13
-16.37
-16.68
-14.65
-10.22
-3.73
4.01
